index,I_value,I_label,II_value,II_label,III_value,III_label,aVR_value,aVR_label,aVL_value,aVL_label,aVF_value,aVF_label,V1_value,V1_label,V2_value,V2_label,V3_value,V3_label,V4_value,V4_label,V5_value,V5_label,V6_value,V6_label
0,1e-07,0,0.0120192309841513,0,0.0120192309841513,0,-0.0048076924867928,0,-0.0048076924867928,0,0.0120192309841513,0,1e-07,0,-0.0120192309841513,0,-0.0120192309841513,0,1e-07,0,1e-07,0,1e-07,0
1,1e-07,0,0.0120192309841513,0,0.0120192309841513,0,-0.0048076924867928,0,-0.0048076924867928,0,0.0120192309841513,0,1e-07,0,-0.0120192309841513,0,-0.0120192309841513,0,1e-07,0,1e-07,0,1e-07,0
2,1e-07,0,0.0120192309841513,0,0.0120192309841513,0,-0.0048076924867928,0,-0.0048076924867928,0,0.0120192309841513,0,1e-07,0,-0.0120192309841513,0,-0.0120192309841513,0,-0.0120192309841513,0,1e-07,0,1e-07,0
3,1e-07,0,0.0120192309841513,0,0.0120192309841513,0,-0.0048076924867928,0,-0.0048076924867928,0,0.0120192309841513,0,1e-07,0,-0.0120192309841513,0,-0.0120192309841513,0,-0.0120192309841513,0,1e-07,0,1e-07,0
4,1e-07,0,0.0120192309841513,0,0.0120192309841513,0,-0.0048076924867928,0,-0.0048076924867928,0,0.0120192309841513,0,1e-07,0,1e-07,0,-0.0120192309841513,0,1e-07,0,1e-07,0,1e-07,0
5,1e-07,0,0.0120192309841513,0,0.0120192309841513,0,-0.0048076924867928,0,-0.0048076924867928,0,0.0120192309841513,0,1e-07,0,1e-07,0,-0.0120192309841513,0,1e-07,0,1e-07,0,1e-07,0
6,1e-07,0,1e-07,0,1e-07,0,1e-07,0,1e-07,0,1e-07,0,1e-07,0,1e-07,0,-0.0120192309841513,0,1e-07,0,1e-07,0,1e-07,0
7,1e-07,0,1e-07,0,1e-07,0,1e-07,0,1e-07,0,1e-07,0,1e-07,0,1e-07,0,-0.0120192309841513,0,1e-07,0,1e-07,0,1e-07,0
8,1e-07,0,1e-07,0,1e-07,0,1e-07,0,1e-07,0,1e-07,0,1e-07,0,1e-07,0,1e-07,0,1e-07,0,1e-07,0,1e-07,0
9,1e-07,0,1e-07,0,1e-07,0,1e-07,0,1e-07,0,1e-07,0,1e-07,0,1e-07,0,1e-07,0,1e-07,0,1e-07,0,1e-07,0
10,1e-07,0,1e-07,0,1e-07,0,1e-07,0,1e-07,0,1e-07,0,1e-07,0,1e-07,0,-0.0120192309841513,0,1e-07,0,1e-07,0,1e-07,0
11,1e-07,0,1e-07,0,1e-07,0,1e-07,0,1e-07,0,1e-07,0,1e-07,0,1e-07,0,-0.0120192309841513,0,1e-07,0,1e-07,0,1e-07,0
12,1e-07,0,1e-07,0,1e-07,0,1e-07,0,1e-07,0,1e-07,0,1e-07,0,1e-07,0,1e-07,0,1e-07,0,1e-07,0,1e-07,0
13,1e-07,0,1e-07,0,1e-07,0,1e-07,0,1e-07,0,1e-07,0,1e-07,0,1e-07,0,1e-07,0,1e-07,0,1e-07,0,1e-07,0
14,1e-07,0,1e-07,0,1e-07,0,1e-07,0,1e-07,0,1e-07,0,1e-07,0,1e-07,0,1e-07,0,-0.0120192309841513,0,1e-07,0,-0.0120192309841513,0
15,1e-07,0,1e-07,0,1e-07,0,1e-07,0,1e-07,0,1e-07,0,1e-07,0,1e-07,0,1e-07,0,-0.0120192309841513,0,1e-07,0,-0.0120192309841513,0
16,1e-07,0,1e-07,0,1e-07,0,1e-07,0,1e-07,0,1e-07,0,0.0120192309841513,0,1e-07,0,-0.0120192309841513,0,-0.0120192309841513,0,-0.0120192309841513,0,-0.0120192309841513,0
17,1e-07,0,1e-07,0,1e-07,0,1e-07,0,1e-07,0,1e-07,0,0.0120192309841513,0,1e-07,0,-0.0120192309841513,0,-0.0120192309841513,0,-0.0120192309841513,0,-0.0120192309841513,0
18,1e-07,0,0.0120192309841513,0,0.0120192309841513,0,-0.0048076924867928,0,-0.0048076924867928,0,0.0120192309841513,0,1e-07,0,1e-07,0,-0.0120192309841513,0,-0.0120192309841513,0,1e-07,0,1e-07,0
19,1e-07,0,0.0120192309841513,0,0.0120192309841513,0,-0.0048076924867928,0,-0.0048076924867928,0,0.0120192309841513,0,1e-07,0,1e-07,0,-0.0120192309841513,0,-0.0120192309841513,0,1e-07,0,1e-07,0
20,1e-07,0,0.0120192309841513,0,0.0120192309841513,0,-0.0048076924867928,0,-0.0048076924867928,0,0.0120192309841513,0,1e-07,0,1e-07,0,-0.0120192309841513,0,-0.0120192309841513,0,1e-07,0,1e-07,0
21,1e-07,0,0.0120192309841513,0,0.0120192309841513,0,-0.0048076924867928,0,-0.0048076924867928,0,0.0120192309841513,0,1e-07,0,1e-07,0,-0.0120192309841513,0,-0.0120192309841513,0,1e-07,0,1e-07,0
22,1e-07,0,0.0120192309841513,0,0.0120192309841513,0,-0.0048076924867928,0,-0.0048076924867928,0,0.0120192309841513,0,1e-07,0,1e-07,0,-0.0120192309841513,0,-0.0120192309841513,0,1e-07,0,-0.0120192309841513,0
23,1e-07,0,0.0120192309841513,0,0.0120192309841513,0,-0.0048076924867928,0,-0.0048076924867928,0,0.0120192309841513,0,1e-07,0,1e-07,0,-0.0120192309841513,0,-0.0120192309841513,0,1e-07,0,-0.0120192309841513,0
24,1e-07,0,1e-07,0,1e-07,0,1e-07,0,1e-07,0,1e-07,0,0.0120192309841513,0,1e-07,0,-0.0120192309841513,0,-0.0120192309841513,0,1e-07,0,-0.0120192309841513,0
25,1e-07,0,1e-07,0,1e-07,0,1e-07,0,1e-07,0,1e-07,0,0.0120192309841513,0,1e-07,0,-0.0120192309841513,0,-0.0120192309841513,0,1e-07,0,-0.0120192309841513,0
26,1e-07,0,1e-07,0,1e-07,0,1e-07,0,1e-07,0,1e-07,0,0.0120192309841513,0,0.0120192309841513,0,1e-07,0,-0.0120192309841513,0,1e-07,0,1e-07,0
27,1e-07,0,1e-07,0,1e-07,0,1e-07,0,1e-07,0,1e-07,0,0.0120192309841513,0,0.0120192309841513,0,1e-07,0,-0.0120192309841513,0,1e-07,0,1e-07,0
28,1e-07,0,1e-07,0,1e-07,0,1e-07,0,1e-07,0,1e-07,0,1e-07,0,1e-07,0,-0.0120192309841513,0,-0.0120192309841513,0,-0.0120192309841513,0,-0.0120192309841513,0
29,1e-07,0,1e-07,0,1e-07,0,1e-07,0,1e-07,0,1e-07,0,1e-07,0,1e-07,0,-0.0120192309841513,0,-0.0120192309841513,0,-0.0120192309841513,0,-0.0120192309841513,0
30,1e-07,0,1e-07,0,1e-07,0,1e-07,0,1e-07,0,1e-07,0,0.0120192309841513,0,0.0120192309841513,0,1e-07,0,-0.0120192309841513,0,1e-07,0,-0.0120192309841513,0
31,1e-07,0,1e-07,0,1e-07,0,1e-07,0,1e-07,0,1e-07,0,0.0120192309841513,0,0.0120192309841513,0,1e-07,0,-0.0120192309841513,0,1e-07,0,-0.0120192309841513,0
32,1e-07,0,1e-07,0,1e-07,0,1e-07,0,1e-07,0,1e-07,0,1e-07,0,1e-07,0,-0.0120192309841513,0,-0.0120192309841513,0,1e-07,0,1e-07,0
33,1e-07,0,1e-07,0,1e-07,0,1e-07,0,1e-07,0,1e-07,0,1e-07,0,1e-07,0,-0.0120192309841513,0,-0.0120192309841513,0,1e-07,0,1e-07,0
34,1e-07,0,1e-07,0,1e-07,0,1e-07,0,1e-07,0,1e-07,0,0.0120192309841513,0,1e-07,0,-0.0120192309841513,0,-0.0120192309841513,0,1e-07,0,-0.0120192309841513,0
35,1e-07,0,1e-07,0,1e-07,0,1e-07,0,1e-07,0,1e-07,0,0.0120192309841513,0,1e-07,0,-0.0120192309841513,0,-0.0120192309841513,0,1e-07,0,-0.0120192309841513,0
36,1e-07,0,1e-07,0,1e-07,0,1e-07,0,1e-07,0,1e-07,0,0.0120192309841513,0,0.0120192309841513,0,1e-07,0,-0.0120192309841513,0,1e-07,0,-0.0120192309841513,0
37,1e-07,0,1e-07,0,1e-07,0,1e-07,0,1e-07,0,1e-07,0,0.0120192309841513,0,0.0120192309841513,0,1e-07,0,-0.0120192309841513,0,1e-07,0,-0.0120192309841513,0
38,1e-07,0,1e-07,0,1e-07,0,1e-07,0,1e-07,0,1e-07,0,0.0120192309841513,0,1e-07,0,-0.0120192309841513,0,-0.0120192309841513,0,1e-07,0,-0.0120192309841513,0
39,1e-07,0,1e-07,0,1e-07,0,1e-07,0,1e-07,0,1e-07,0,0.0120192309841513,0,1e-07,0,-0.0120192309841513,0,-0.0120192309841513,0,1e-07,0,-0.0120192309841513,0
40,1e-07,0,1e-07,0,1e-07,0,1e-07,0,1e-07,0,1e-07,0,0.0120192309841513,0,1e-07,0,-0.0120192309841513,0,-0.0120192309841513,0,1e-07,0,-0.0120192309841513,0
41,1e-07,0,1e-07,0,1e-07,0,1e-07,0,1e-07,0,1e-07,0,0.0120192309841513,0,1e-07,0,-0.0120192309841513,0,-0.0120192309841513,0,1e-07,0,-0.0120192309841513,0
42,1e-07,0,1e-07,0,1e-07,0,1e-07,0,1e-07,0,1e-07,0,0.0120192309841513,0,1e-07,0,1e-07,0,-0.0120192309841513,0,1e-07,0,-0.0120192309841513,0
43,1e-07,0,1e-07,0,1e-07,0,1e-07,0,1e-07,0,1e-07,0,0.0120192309841513,0,1e-07,0,1e-07,0,-0.0120192309841513,0,1e-07,0,-0.0120192309841513,0
44,1e-07,0,1e-07,0,1e-07,0,1e-07,0,1e-07,0,1e-07,0,0.0120192309841513,0,1e-07,0,-0.0120192309841513,0,-0.0120192309841513,0,1e-07,0,-0.0120192309841513,0
45,1e-07,0,1e-07,0,1e-07,0,1e-07,0,1e-07,0,1e-07,0,0.0120192309841513,0,1e-07,0,-0.0120192309841513,0,-0.0120192309841513,0,1e-07,0,-0.0120192309841513,0
46,1e-07,0,0.0120192309841513,0,0.0120192309841513,0,-0.0048076924867928,0,-0.0048076924867928,0,0.0120192309841513,0,0.0120192309841513,0,0.0120192309841513,0,1e-07,0,-0.0120192309841513,0,1e-07,0,-0.0120192309841513,0
47,1e-07,0,0.0120192309841513,0,0.0120192309841513,0,-0.0048076924867928,0,-0.0048076924867928,0,0.0120192309841513,0,0.0120192309841513,0,0.0120192309841513,0,1e-07,0,-0.0120192309841513,0,1e-07,0,-0.0120192309841513,0
48,1e-07,0,0.0120192309841513,0,0.0120192309841513,0,-0.0048076924867928,0,-0.0048076924867928,0,0.0120192309841513,0,1e-07,0,1e-07,0,1e-07,0,1e-07,0,1e-07,0,1e-07,0
49,1e-07,0,0.0120192309841513,0,0.0120192309841513,0,-0.0048076924867928,0,-0.0048076924867928,0,0.0120192309841513,0,1e-07,0,1e-07,0,1e-07,0,1e-07,0,1e-07,0,1e-07,0
50,1e-07,0,0.0120192309841513,0,0.0120192309841513,0,-0.0048076924867928,0,-0.0048076924867928,0,0.0120192309841513,0,1e-07,0,1e-07,0,1e-07,0,0.0120192309841513,0,0.0120192309841513,0,1e-07,0
51,1e-07,0,0.0120192309841513,0,0.0120192309841513,0,-0.0048076924867928,0,-0.0048076924867928,0,0.0120192309841513,0,1e-07,0,1e-07,0,1e-07,0,0.0120192309841513,0,0.0120192309841513,0,1e-07,0
52,1e-07,0,1e-07,0,1e-07,0,1e-07,0,1e-07,0,1e-07,0,1e-07,0,1e-07,0,1e-07,0,1e-07,0,1e-07,0,-0.0120192309841513,0
53,1e-07,0,1e-07,0,1e-07,0,1e-07,0,1e-07,0,1e-07,0,1e-07,0,1e-07,0,1e-07,0,1e-07,0,1e-07,0,-0.0120192309841513,0
54,1e-07,0,1e-07,0,1e-07,0,1e-07,0,1e-07,0,1e-07,0,1e-07,0,1e-07,0,1e-07,0,1e-07,0,1e-07,0,-0.0120192309841513,0
55,1e-07,0,1e-07,0,1e-07,0,1e-07,0,1e-07,0,1e-07,0,1e-07,0,1e-07,0,1e-07,0,1e-07,0,1e-07,0,-0.0120192309841513,0
56,1e-07,0,0.0120192309841513,0,0.0120192309841513,0,-0.0048076924867928,0,-0.0048076924867928,0,0.0120192309841513,0,1e-07,0,1e-07,0,1e-07,0,1e-07,0,1e-07,0,1e-07,0
57,1e-07,0,0.0120192309841513,0,0.0120192309841513,0,-0.0048076924867928,0,-0.0048076924867928,0,0.0120192309841513,0,1e-07,0,1e-07,0,1e-07,0,1e-07,0,1e-07,0,1e-07,0
58,1e-07,0,0.0120192309841513,0,0.0120192309841513,0,-0.0048076924867928,0,-0.0048076924867928,0,0.0120192309841513,0,1e-07,0,1e-07,0,-0.0120192309841513,0,1e-07,0,-0.0120192309841513,0,-0.0120192309841513,0
59,1e-07,0,0.0120192309841513,0,0.0120192309841513,0,-0.0048076924867928,0,-0.0048076924867928,0,0.0120192309841513,0,1e-07,0,1e-07,0,-0.0120192309841513,0,1e-07,0,-0.0120192309841513,0,-0.0120192309841513,0
60,1e-07,0,0.0120192309841513,0,0.0120192309841513,0,-0.0048076924867928,0,-0.0048076924867928,0,0.0120192309841513,0,-0.0120192309841513,0,1e-07,0,-0.0120192309841513,0,1e-07,0,-0.0120192309841513,0,-0.0120192309841513,0
61,1e-07,0,0.0120192309841513,0,0.0120192309841513,0,-0.0048076924867928,0,-0.0048076924867928,0,0.0120192309841513,0,-0.0120192309841513,0,1e-07,0,-0.0120192309841513,0,1e-07,0,-0.0120192309841513,0,-0.0120192309841513,0
62,1e-07,0,0.0120192309841513,0,0.0120192309841513,0,-0.0048076924867928,0,-0.0048076924867928,0,0.0120192309841513,0,-0.0120192309841513,0,-0.0120192309841513,0,-0.0120192309841513,0,1e-07,0,1e-07,0,-0.0120192309841513,0
63,1e-07,0,0.0120192309841513,0,0.0120192309841513,0,-0.0048076924867928,0,-0.0048076924867928,0,0.0120192309841513,0,-0.0120192309841513,0,-0.0120192309841513,0,-0.0120192309841513,0,1e-07,0,1e-07,0,-0.0120192309841513,0
64,1e-07,0,0.0120192309841513,0,0.0120192309841513,0,-0.0048076924867928,0,-0.0048076924867928,0,0.0120192309841513,0,-0.0120192309841513,0,-0.0120192309841513,0,-0.0120192309841513,0,-0.0120192309841513,0,-0.0120192309841513,0,1e-07,0
65,1e-07,0,0.0120192309841513,0,0.0120192309841513,0,-0.0048076924867928,0,-0.0048076924867928,0,0.0120192309841513,0,-0.0120192309841513,0,-0.0120192309841513,0,-0.0120192309841513,0,-0.0120192309841513,0,-0.0120192309841513,0,1e-07,0
66,1e-07,0,0.0120192309841513,0,0.0120192309841513,0,-0.0048076924867928,0,-0.0048076924867928,0,0.0120192309841513,0,-0.0120192309841513,0,-0.0120192309841513,0,-0.0120192309841513,0,-0.0120192309841513,0,-0.0120192309841513,0,-0.0120192309841513,0
67,1e-07,0,0.0120192309841513,0,0.0120192309841513,0,-0.0048076924867928,0,-0.0048076924867928,0,0.0120192309841513,0,-0.0120192309841513,0,-0.0120192309841513,0,-0.0120192309841513,0,-0.0120192309841513,0,-0.0120192309841513,0,-0.0120192309841513,0
68,1e-07,0,0.0120192309841513,0,0.0120192309841513,0,-0.0048076924867928,0,-0.0048076924867928,0,0.0120192309841513,0,-0.0120192309841513,0,-0.0120192309841513,0,-0.0120192309841513,0,-0.0120192309841513,0,-0.0120192309841513,0,1e-07,0
69,1e-07,0,0.0120192309841513,0,0.0120192309841513,0,-0.0048076924867928,0,-0.0048076924867928,0,0.0120192309841513,0,-0.0120192309841513,0,-0.0120192309841513,0,-0.0120192309841513,0,-0.0120192309841513,0,-0.0120192309841513,0,1e-07,0
70,1e-07,0,0.0120192309841513,0,0.0120192309841513,0,-0.0048076924867928,0,-0.0048076924867928,0,0.0120192309841513,0,-0.0120192309841513,0,-0.0240384619683027,0,-0.0240384619683027,0,1e-07,0,1e-07,0,1e-07,0
71,1e-07,0,0.0120192309841513,0,0.0120192309841513,0,-0.0048076924867928,0,-0.0048076924867928,0,0.0120192309841513,0,-0.0120192309841513,0,-0.0240384619683027,0,-0.0240384619683027,0,1e-07,0,1e-07,0,1e-07,0
72,1e-07,0,0.0120192309841513,0,0.0120192309841513,0,-0.0048076924867928,0,-0.0048076924867928,0,0.0120192309841513,0,-0.0240384619683027,0,-0.0120192309841513,0,-0.0240384619683027,0,-0.0120192309841513,0,-0.0120192309841513,0,-0.0120192309841513,0
73,1e-07,0,0.0120192309841513,0,0.0120192309841513,0,-0.0048076924867928,0,-0.0048076924867928,0,0.0120192309841513,0,-0.0240384619683027,0,-0.0120192309841513,0,-0.0240384619683027,0,-0.0120192309841513,0,-0.0120192309841513,0,-0.0120192309841513,0
74,1e-07,0,0.0120192309841513,0,0.0120192309841513,0,-0.0048076924867928,0,-0.0048076924867928,0,0.0120192309841513,0,-0.0240384619683027,0,-0.0240384619683027,0,-0.0240384619683027,0,-0.0120192309841513,0,1e-07,0,1e-07,0
75,1e-07,0,0.0120192309841513,0,0.0120192309841513,0,-0.0048076924867928,0,-0.0048076924867928,0,0.0120192309841513,0,-0.0240384619683027,0,-0.0240384619683027,0,-0.0240384619683027,0,-0.0120192309841513,0,1e-07,0,1e-07,0
76,1e-07,0,0.0120192309841513,0,0.0120192309841513,0,-0.0048076924867928,0,-0.0048076924867928,0,0.0120192309841513,0,-0.0240384619683027,0,-0.0240384619683027,0,-0.0240384619683027,0,-0.0120192309841513,0,-0.0120192309841513,0,1e-07,0
77,1e-07,0,0.0120192309841513,0,0.0120192309841513,0,-0.0048076924867928,0,-0.0048076924867928,0,0.0120192309841513,0,-0.0240384619683027,0,-0.0240384619683027,0,-0.0240384619683027,0,-0.0120192309841513,0,-0.0120192309841513,0,1e-07,0
78,1e-07,0,0.0120192309841513,0,0.0120192309841513,0,-0.0048076924867928,0,-0.0048076924867928,0,0.0120192309841513,0,-0.0240384619683027,0,-0.0240384619683027,0,-0.0240384619683027,0,-0.0240384619683027,0,-0.0120192309841513,0,1e-07,0
79,1e-07,0,0.0120192309841513,0,0.0120192309841513,0,-0.0048076924867928,0,-0.0048076924867928,0,0.0120192309841513,0,-0.0240384619683027,0,-0.0240384619683027,0,-0.0240384619683027,0,-0.0240384619683027,0,-0.0120192309841513,0,1e-07,0
80,1e-07,0,1e-07,0,1e-07,0,1e-07,0,1e-07,0,1e-07,0,-0.0240384619683027,0,-0.0240384619683027,0,-0.0360576920211315,0,-0.0240384619683027,0,-0.0240384619683027,0,-0.0120192309841513,0
81,1e-07,0,1e-07,0,1e-07,0,1e-07,0,1e-07,0,1e-07,0,-0.0240384619683027,0,-0.0240384619683027,0,-0.0360576920211315,0,-0.0240384619683027,0,-0.0240384619683027,0,-0.0120192309841513,0
82,1e-07,0,1e-07,0,1e-07,0,1e-07,0,1e-07,0,1e-07,0,-0.0240384619683027,0,-0.0240384619683027,0,-0.0360576920211315,0,-0.0120192309841513,0,-0.0120192309841513,0,-0.0120192309841513,0
83,1e-07,0,1e-07,0,1e-07,0,1e-07,0,1e-07,0,1e-07,0,-0.0240384619683027,0,-0.0240384619683027,0,-0.0360576920211315,0,-0.0120192309841513,0,-0.0120192309841513,0,-0.0120192309841513,0
84,1e-07,0,1e-07,0,1e-07,0,1e-07,0,1e-07,0,1e-07,0,-0.0240384619683027,0,-0.0240384619683027,0,-0.0360576920211315,0,-0.0240384619683027,0,-0.0120192309841513,0,1e-07,0
85,1e-07,0,1e-07,0,1e-07,0,1e-07,0,1e-07,0,1e-07,0,-0.0240384619683027,0,-0.0240384619683027,0,-0.0360576920211315,0,-0.0240384619683027,0,-0.0120192309841513,0,1e-07,0
86,1e-07,0,0.0240384619683027,0,0.0240384619683027,0,-0.0120192309841513,0,-0.0120192309841513,0,0.0240384619683027,0,-0.0120192309841513,0,-0.0240384619683027,0,-0.0240384619683027,0,-0.0120192309841513,0,-0.0120192309841513,0,1e-07,0
87,1e-07,0,0.0240384619683027,0,0.0240384619683027,0,-0.0120192309841513,0,-0.0120192309841513,0,0.0240384619683027,0,-0.0120192309841513,0,-0.0240384619683027,0,-0.0240384619683027,0,-0.0120192309841513,0,-0.0120192309841513,0,1e-07,0
88,1e-07,0,0.0240384619683027,0,0.0240384619683027,0,-0.0120192309841513,0,-0.0120192309841513,0,0.0240384619683027,0,1e-07,0,-0.0120192309841513,0,-0.0240384619683027,0,-0.0120192309841513,0,-0.0120192309841513,0,1e-07,0
89,1e-07,0,0.0240384619683027,0,0.0240384619683027,0,-0.0120192309841513,0,-0.0120192309841513,0,0.0240384619683027,0,1e-07,0,-0.0120192309841513,0,-0.0240384619683027,0,-0.0120192309841513,0,-0.0120192309841513,0,1e-07,0
90,1e-07,0,0.0480769239366054,0,0.0480769239366054,0,-0.0240384619683027,0,-0.0240384619683027,0,0.0480769239366054,0,1e-07,0,-0.0120192309841513,0,-0.0120192309841513,0,1e-07,0,1e-07,0,0.0120192309841513,0
91,1e-07,0,0.0480769239366054,0,0.0480769239366054,0,-0.0240384619683027,0,-0.0240384619683027,0,0.0480769239366054,0,1e-07,0,-0.0120192309841513,0,-0.0120192309841513,0,1e-07,0,1e-07,0,0.0120192309841513,0
92,0.0120192309841513,0,0.060096152126789,0,0.0480769239366054,0,-0.0360576920211315,0,-0.0168269239366054,0,0.0552884601056575,0,1e-07,0,-0.0120192309841513,0,-0.0120192309841513,0,1e-07,0,1e-07,0,0.0120192309841513,0
93,0.0120192309841513,0,0.060096152126789,0,0.0480769239366054,0,-0.0360576920211315,0,-0.0168269239366054,0,0.0552884601056575,0,1e-07,0,-0.0120192309841513,0,-0.0120192309841513,0,1e-07,0,1e-07,0,0.0120192309841513,0
94,0.0120192309841513,0,0.060096152126789,0,0.0480769239366054,0,-0.0360576920211315,0,-0.0168269239366054,0,0.0552884601056575,0,1e-07,0,-0.0120192309841513,0,-0.0120192309841513,0,1e-07,0,1e-07,0,0.0120192309841513,0
95,0.0120192309841513,0,0.060096152126789,0,0.0480769239366054,0,-0.0360576920211315,0,-0.0168269239366054,0,0.0552884601056575,0,1e-07,0,-0.0120192309841513,0,-0.0120192309841513,0,1e-07,0,1e-07,0,0.0120192309841513,0
96,0.0120192309841513,0,0.072115384042263,0,0.060096152126789,0,-0.040865384042263,0,-0.0240384619683027,0,0.0673076957464218,0,1e-07,0,-0.0120192309841513,0,-0.0120192309841513,0,1e-07,0,1e-07,0,0.0120192309841513,0
97,0.0120192309841513,0,0.072115384042263,0,0.060096152126789,0,-0.040865384042263,0,-0.0240384619683027,0,0.0673076957464218,0,1e-07,0,-0.0120192309841513,0,-0.0120192309841513,0,1e-07,0,1e-07,0,0.0120192309841513,0
98,0.0120192309841513,0,0.072115384042263,0,0.060096152126789,0,-0.040865384042263,0,-0.0240384619683027,0,0.0673076957464218,0,1e-07,0,-0.0240384619683027,0,-0.0240384619683027,0,1e-07,0,1e-07,0,0.0240384619683027,0
99,0.0120192309841513,0,0.072115384042263,0,0.060096152126789,0,-0.040865384042263,0,-0.0240384619683027,0,0.0673076957464218,0,1e-07,0,-0.0240384619683027,0,-0.0240384619683027,0,1e-07,0,1e-07,0,0.0240384619683027,0
100,0.0120192309841513,0,0.072115384042263,0,0.060096152126789,0,-0.040865384042263,0,-0.0240384619683027,0,0.0673076957464218,0,1e-07,0,-0.0120192309841513,0,-0.0120192309841513,0,1e-07,0,1e-07,0,0.0120192309841513,0
101,0.0120192309841513,0,0.072115384042263,0,0.060096152126789,0,-0.040865384042263,0,-0.0240384619683027,0,0.0673076957464218,0,1e-07,0,-0.0120192309841513,0,-0.0120192309841513,0,1e-07,0,1e-07,0,0.0120192309841513,0
102,0.0120192309841513,0,0.072115384042263,0,0.060096152126789,0,-0.040865384042263,0,-0.0240384619683027,0,0.0673076957464218,0,1e-07,0,-0.0120192309841513,0,-0.0120192309841513,0,0.0120192309841513,0,0.0120192309841513,0,0.0240384619683027,0
103,0.0120192309841513,0,0.072115384042263,0,0.060096152126789,0,-0.040865384042263,0,-0.0240384619683027,0,0.0673076957464218,0,1e-07,0,-0.0120192309841513,0,-0.0120192309841513,0,0.0120192309841513,0,0.0120192309841513,0,0.0240384619683027,0
104,0.0240384619683027,0,0.1081730797886848,0,0.0841346159577369,0,-0.0649038478732109,0,-0.0288461539894342,0,0.0961538478732109,0,1e-07,0,1e-07,0,1e-07,0,0.0240384619683027,0,0.0240384619683027,0,0.0360576920211315,0
105,0.0240384619683027,0,0.1081730797886848,0,0.0841346159577369,0,-0.0649038478732109,0,-0.0288461539894342,0,0.0961538478732109,0,1e-07,0,1e-07,0,1e-07,0,0.0240384619683027,0,0.0240384619683027,0,0.0360576920211315,0
106,0.0360576920211315,0,0.144230768084526,0,0.1081730797886848,0,-0.0889423042535781,0,-0.0360576920211315,0,0.1274038404226303,0,1e-07,0,1e-07,0,0.0120192309841513,0,0.0360576920211315,0,0.0480769239366054,0,0.060096152126789,0
107,0.0360576920211315,0,0.144230768084526,0,0.1081730797886848,0,-0.0889423042535781,0,-0.0360576920211315,0,0.1274038404226303,0,1e-07,0,1e-07,0,0.0120192309841513,0,0.0360576920211315,0,0.0480769239366054,0,0.060096152126789,0
108,0.0480769239366054,0,0.1802884638309478,0,0.1322115361690521,0,-0.112980768084526,0,-0.040865384042263,0,0.15625,0,-0.0120192309841513,0,1e-07,0,0.0240384619683027,0,0.0480769239366054,0,0.060096152126789,0,0.072115384042263,0
109,0.0480769239366054,0,0.1802884638309478,0,0.1322115361690521,0,-0.112980768084526,0,-0.040865384042263,0,0.15625,0,-0.0120192309841513,0,1e-07,0,0.0240384619683027,0,0.0480769239366054,0,0.060096152126789,0,0.072115384042263,0
110,0.0480769239366054,0,0.1923076957464218,0,0.144230768084526,0,-0.1201923042535781,0,-0.0480769239366054,0,0.1682692319154739,0,-0.0240384619683027,0,1e-07,0,0.0240384619683027,0,0.060096152126789,0,0.072115384042263,0,0.0841346159577369,0
111,0.0480769239366054,0,0.1923076957464218,0,0.144230768084526,0,-0.1201923042535781,0,-0.0480769239366054,0,0.1682692319154739,0,-0.0240384619683027,0,1e-07,0,0.0240384619683027,0,0.060096152126789,0,0.072115384042263,0,0.0841346159577369,0
112,0.0480769239366054,0,0.1923076957464218,0,0.144230768084526,0,-0.1201923042535781,0,-0.0480769239366054,0,0.1682692319154739,0,-0.0360576920211315,0,-0.0240384619683027,0,0.0120192309841513,0,0.0480769239366054,0,0.060096152126789,0,0.0841346159577369,0
113,0.0480769239366054,0,0.1923076957464218,0,0.144230768084526,0,-0.1201923042535781,0,-0.0480769239366054,0,0.1682692319154739,0,-0.0360576920211315,0,-0.0240384619683027,0,0.0120192309841513,0,0.0480769239366054,0,0.060096152126789,0,0.0841346159577369,0
114,0.0480769239366054,0,0.1802884638309478,0,0.1322115361690521,0,-0.112980768084526,0,-0.040865384042263,0,0.15625,0,-0.0480769239366054,0,-0.0360576920211315,0,-0.0120192309841513,0,0.0240384619683027,0,0.0480769239366054,0,0.0841346159577369,0
115,0.0480769239366054,0,0.1802884638309478,0,0.1322115361690521,0,-0.112980768084526,0,-0.040865384042263,0,0.15625,0,-0.0480769239366054,0,-0.0360576920211315,0,-0.0120192309841513,0,0.0240384619683027,0,0.0480769239366054,0,0.0841346159577369,0
116,0.0480769239366054,0,0.1923076957464218,0,0.144230768084526,0,-0.1201923042535781,0,-0.0480769239366054,0,0.1682692319154739,0,-0.072115384042263,0,-0.0480769239366054,0,-0.0240384619683027,0,0.0120192309841513,0,0.0480769239366054,0,0.0841346159577369,0
117,0.0480769239366054,0,0.1923076957464218,0,0.144230768084526,0,-0.1201923042535781,0,-0.0480769239366054,0,0.1682692319154739,0,-0.072115384042263,0,-0.0480769239366054,0,-0.0240384619683027,0,0.0120192309841513,0,0.0480769239366054,0,0.0841346159577369,0
118,0.0480769239366054,0,0.1802884638309478,0,0.1322115361690521,0,-0.112980768084526,0,-0.040865384042263,0,0.15625,0,-0.072115384042263,0,-0.060096152126789,0,-0.0240384619683027,0,0.0240384619683027,0,0.0480769239366054,0,0.072115384042263,0
119,0.0480769239366054,0,0.1802884638309478,0,0.1322115361690521,0,-0.112980768084526,0,-0.040865384042263,0,0.15625,0,-0.072115384042263,0,-0.060096152126789,0,-0.0240384619683027,0,0.0240384619683027,0,0.0480769239366054,0,0.072115384042263,0
120,0.0480769239366054,0,0.1802884638309478,0,0.1322115361690521,0,-0.112980768084526,0,-0.040865384042263,0,0.15625,0,-0.072115384042263,0,-0.060096152126789,0,-0.0240384619683027,0,0.0240384619683027,0,0.0480769239366054,0,0.0841346159577369,0
121,0.0480769239366054,0,0.1802884638309478,0,0.1322115361690521,0,-0.112980768084526,0,-0.040865384042263,0,0.15625,0,-0.072115384042263,0,-0.060096152126789,0,-0.0240384619683027,0,0.0240384619683027,0,0.0480769239366054,0,0.0841346159577369,0
122,0.0360576920211315,0,0.15625,0,0.1201923042535781,0,-0.0961538478732109,0,-0.040865384042263,0,0.1394230723381042,0,-0.072115384042263,0,-0.060096152126789,0,-0.0360576920211315,0,0.0120192309841513,0,0.0480769239366054,0,0.072115384042263,0
123,0.0360576920211315,0,0.15625,0,0.1201923042535781,0,-0.0961538478732109,0,-0.040865384042263,0,0.1394230723381042,0,-0.072115384042263,0,-0.060096152126789,0,-0.0360576920211315,0,0.0120192309841513,0,0.0480769239366054,0,0.072115384042263,0
124,0.0360576920211315,0,0.144230768084526,0,0.1081730797886848,0,-0.0889423042535781,0,-0.0360576920211315,0,0.1274038404226303,0,-0.060096152126789,0,-0.060096152126789,0,-0.0360576920211315,0,1e-07,0,0.0360576920211315,0,0.072115384042263,0
125,0.0360576920211315,0,0.144230768084526,0,0.1081730797886848,0,-0.0889423042535781,0,-0.0360576920211315,0,0.1274038404226303,0,-0.060096152126789,0,-0.060096152126789,0,-0.0360576920211315,0,1e-07,0,0.0360576920211315,0,0.072115384042263,0
126,0.0240384619683027,0,0.1322115361690521,0,0.1081730797886848,0,-0.0769230797886848,0,-0.040865384042263,0,0.1201923042535781,0,-0.060096152126789,0,-0.060096152126789,0,-0.0360576920211315,0,1e-07,0,0.0240384619683027,0,0.060096152126789,0
127,0.0240384619683027,0,0.1322115361690521,0,0.1081730797886848,0,-0.0769230797886848,0,-0.040865384042263,0,0.1201923042535781,0,-0.060096152126789,0,-0.060096152126789,0,-0.0360576920211315,0,1e-07,0,0.0240384619683027,0,0.060096152126789,0
128,0.0240384619683027,0,0.144230768084526,0,0.1201923042535781,0,-0.0841346159577369,0,-0.0480769239366054,0,0.1322115361690521,0,-0.060096152126789,0,-0.060096152126789,0,-0.0360576920211315,0,1e-07,0,0.0360576920211315,0,0.060096152126789,0
129,0.0240384619683027,0,0.144230768084526,0,0.1201923042535781,0,-0.0841346159577369,0,-0.0480769239366054,0,0.1322115361690521,0,-0.060096152126789,0,-0.060096152126789,0,-0.0360576920211315,0,1e-07,0,0.0360576920211315,0,0.060096152126789,0
130,0.0120192309841513,0,0.1081730797886848,0,0.0961538478732109,0,-0.060096152126789,0,-0.040865384042263,0,0.103365384042263,0,-0.0480769239366054,0,-0.0480769239366054,0,-0.0360576920211315,0,1e-07,0,0.0240384619683027,0,0.0480769239366054,0
131,0.0120192309841513,0,0.1081730797886848,0,0.0961538478732109,0,-0.060096152126789,0,-0.040865384042263,0,0.103365384042263,0,-0.0480769239366054,0,-0.0480769239366054,0,-0.0360576920211315,0,1e-07,0,0.0240384619683027,0,0.0480769239366054,0
132,1e-07,0,0.060096152126789,0,0.060096152126789,0,-0.0288461539894342,0,-0.0288461539894342,0,0.060096152126789,0,-0.0480769239366054,0,-0.060096152126789,0,-0.0480769239366054,0,-0.0240384619683027,0,1e-07,0,0.0240384619683027,0
133,1e-07,0,0.060096152126789,0,0.060096152126789,0,-0.0288461539894342,0,-0.0288461539894342,0,0.060096152126789,0,-0.0480769239366054,0,-0.060096152126789,0,-0.0480769239366054,0,-0.0240384619683027,0,1e-07,0,0.0240384619683027,0
134,1e-07,0,0.060096152126789,0,0.060096152126789,0,-0.0288461539894342,0,-0.0288461539894342,0,0.060096152126789,0,-0.0480769239366054,0,-0.060096152126789,0,-0.0480769239366054,0,-0.0240384619683027,0,1e-07,0,0.0120192309841513,0
135,1e-07,0,0.060096152126789,0,0.060096152126789,0,-0.0288461539894342,0,-0.0288461539894342,0,0.060096152126789,0,-0.0480769239366054,0,-0.060096152126789,0,-0.0480769239366054,0,-0.0240384619683027,0,1e-07,0,0.0120192309841513,0
136,1e-07,0,0.0480769239366054,0,0.0480769239366054,0,-0.0240384619683027,0,-0.0240384619683027,0,0.0480769239366054,0,-0.060096152126789,0,-0.072115384042263,0,-0.072115384042263,0,-0.0360576920211315,0,-0.0120192309841513,0,0.0120192309841513,0
137,1e-07,0,0.0480769239366054,0,0.0480769239366054,0,-0.0240384619683027,0,-0.0240384619683027,0,0.0480769239366054,0,-0.060096152126789,0,-0.072115384042263,0,-0.072115384042263,0,-0.0360576920211315,0,-0.0120192309841513,0,0.0120192309841513,0
138,1e-07,0,0.0360576920211315,0,0.0360576920211315,0,-0.0168269239366054,0,-0.0168269239366054,0,0.0360576920211315,0,-0.060096152126789,0,-0.072115384042263,0,-0.072115384042263,0,-0.0480769239366054,0,-0.0240384619683027,0,0.0120192309841513,0
139,1e-07,0,0.0360576920211315,0,0.0360576920211315,0,-0.0168269239366054,0,-0.0168269239366054,0,0.0360576920211315,0,-0.060096152126789,0,-0.072115384042263,0,-0.072115384042263,0,-0.0480769239366054,0,-0.0240384619683027,0,0.0120192309841513,0
140,-0.0120192309841513,0,0.0240384619683027,0,0.0360576920211315,0,-0.0048076924867928,0,-0.0240384619683027,0,0.0288461539894342,0,-0.060096152126789,0,-0.072115384042263,0,-0.0841346159577369,0,-0.0480769239366054,0,-0.0240384619683027,0,1e-07,0
141,-0.0120192309841513,0,0.0240384619683027,0,0.0360576920211315,0,-0.0048076924867928,0,-0.0240384619683027,0,0.0288461539894342,0,-0.060096152126789,0,-0.072115384042263,0,-0.0841346159577369,0,-0.0480769239366054,0,-0.0240384619683027,0,1e-07,0
142,-0.0120192309841513,0,0.0120192309841513,0,0.0240384619683027,0,1e-07,0,-0.0168269239366054,0,0.0168269239366054,0,-0.060096152126789,0,-0.072115384042263,0,-0.0841346159577369,0,-0.060096152126789,0,-0.0240384619683027,0,1e-07,0
143,-0.0120192309841513,0,0.0120192309841513,0,0.0240384619683027,0,1e-07,0,-0.0168269239366054,0,0.0168269239366054,0,-0.060096152126789,0,-0.072115384042263,0,-0.0841346159577369,0,-0.060096152126789,0,-0.0240384619683027,0,1e-07,0
144,-0.0120192309841513,0,1e-07,0,0.0120192309841513,0,0.0048076924867928,0,-0.0120192309841513,0,0.0048076924867928,0,-0.060096152126789,0,-0.072115384042263,0,-0.0841346159577369,0,-0.060096152126789,0,-0.0360576920211315,0,-0.0120192309841513,0
145,-0.0120192309841513,0,1e-07,0,0.0120192309841513,0,0.0048076924867928,0,-0.0120192309841513,0,0.0048076924867928,0,-0.060096152126789,0,-0.072115384042263,0,-0.0841346159577369,0,-0.060096152126789,0,-0.0360576920211315,0,-0.0120192309841513,0
146,-0.0120192309841513,0,1e-07,0,0.0120192309841513,0,0.0048076924867928,0,-0.0120192309841513,0,0.0048076924867928,0,-0.060096152126789,0,-0.072115384042263,0,-0.0841346159577369,0,-0.060096152126789,0,-0.0360576920211315,0,-0.0120192309841513,0
147,-0.0120192309841513,0,1e-07,0,0.0120192309841513,0,0.0048076924867928,0,-0.0120192309841513,0,0.0048076924867928,0,-0.060096152126789,0,-0.072115384042263,0,-0.0841346159577369,0,-0.060096152126789,0,-0.0360576920211315,0,-0.0120192309841513,0
148,-0.0120192309841513,0,-0.0120192309841513,0,1e-07,0,0.0120192309841513,0,-0.0072115384973585,0,-0.0072115384973585,0,-0.0480769239366054,0,-0.072115384042263,0,-0.0841346159577369,0,-0.060096152126789,0,-0.0360576920211315,0,-0.0120192309841513,0
149,-0.0120192309841513,0,-0.0120192309841513,0,1e-07,0,0.0120192309841513,0,-0.0072115384973585,0,-0.0072115384973585,0,-0.0480769239366054,0,-0.072115384042263,0,-0.0841346159577369,0,-0.060096152126789,0,-0.0360576920211315,0,-0.0120192309841513,0
150,-0.0120192309841513,0,-0.0120192309841513,0,1e-07,0,0.0120192309841513,0,-0.0072115384973585,0,-0.0072115384973585,0,-0.0480769239366054,0,-0.072115384042263,0,-0.0841346159577369,0,-0.060096152126789,0,-0.0360576920211315,0,-0.0120192309841513,0
151,-0.0120192309841513,0,-0.0120192309841513,0,1e-07,0,0.0120192309841513,0,-0.0072115384973585,0,-0.0072115384973585,0,-0.0480769239366054,0,-0.072115384042263,0,-0.0841346159577369,0,-0.060096152126789,0,-0.0360576920211315,0,-0.0120192309841513,0
152,-0.0240384619683027,0,1e-07,0,0.0240384619683027,0,0.0120192309841513,0,-0.0240384619683027,0,0.0120192309841513,0,-0.0480769239366054,0,-0.072115384042263,0,-0.0841346159577369,0,-0.060096152126789,0,-0.0360576920211315,0,-0.0120192309841513,0
153,-0.0240384619683027,0,1e-07,0,0.0240384619683027,0,0.0120192309841513,0,-0.0240384619683027,0,0.0120192309841513,0,-0.0480769239366054,0,-0.072115384042263,0,-0.0841346159577369,0,-0.060096152126789,0,-0.0360576920211315,0,-0.0120192309841513,0
154,-0.0120192309841513,0,-0.0120192309841513,1,1e-07,1,0.0120192309841513,0,-0.0072115384973585,0,-0.0072115384973585,1,-0.0360576920211315,0,-0.060096152126789,0,-0.072115384042263,0,-0.0480769239366054,0,-0.0240384619683027,1,-0.0120192309841513,1
155,-0.0120192309841513,1,-0.0120192309841513,1,1e-07,1,0.0120192309841513,0,-0.0072115384973585,0,-0.0072115384973585,1,-0.0360576920211315,0,-0.060096152126789,0,-0.072115384042263,0,-0.0480769239366054,0,-0.0240384619683027,1,-0.0120192309841513,1
156,-0.0240384619683027,1,-0.0120192309841513,1,0.0120192309841513,1,0.0168269239366054,1,-0.0192307699471712,0,1e-07,1,-0.0360576920211315,1,-0.0480769239366054,0,-0.072115384042263,0,-0.0480769239366054,0,-0.0360576920211315,1,-0.0240384619683027,1
157,-0.0240384619683027,1,-0.0120192309841513,1,0.0120192309841513,1,0.0168269239366054,1,-0.0192307699471712,0,1e-07,1,-0.0360576920211315,1,-0.0480769239366054,0,-0.072115384042263,0,-0.0480769239366054,0,-0.0360576920211315,1,-0.0240384619683027,1
158,-0.0240384619683027,1,-0.0240384619683027,1,1e-07,1,0.0240384619683027,1,-0.0120192309841513,0,-0.0120192309841513,1,1e-07,1,-0.0240384619683027,1,-0.0360576920211315,0,-0.0360576920211315,0,-0.0360576920211315,1,-0.0240384619683027,1
159,-0.0240384619683027,1,-0.0240384619683027,1,1e-07,1,0.0240384619683027,1,-0.0120192309841513,0,-0.0120192309841513,1,1e-07,1,-0.0240384619683027,1,-0.0360576920211315,1,-0.0360576920211315,1,-0.0360576920211315,1,-0.0240384619683027,1
160,-0.0360576920211315,1,-0.060096152126789,1,-0.0240384619683027,1,0.0480769239366054,1,-0.0072115384973585,1,-0.0432692319154739,1,0.0841346159577369,1,0.0480769239366054,1,0.0120192309841513,1,-0.0240384619683027,1,-0.060096152126789,1,-0.0480769239366054,1
161,-0.0360576920211315,1,-0.060096152126789,1,-0.0240384619683027,1,0.0480769239366054,1,-0.0072115384973585,1,-0.0432692319154739,1,0.0841346159577369,1,0.0480769239366054,1,0.0120192309841513,1,-0.0240384619683027,1,-0.060096152126789,1,-0.0480769239366054,1
162,-0.060096152126789,1,-0.1201923042535781,1,-0.060096152126789,1,0.0889423042535781,1,1e-07,1,-0.091346152126789,1,0.1802884638309478,1,0.1322115361690521,1,0.072115384042263,1,-0.0240384619683027,1,-0.0961538478732109,1,-0.0961538478732109,1
163,-0.060096152126789,1,-0.1201923042535781,1,-0.060096152126789,1,0.0889423042535781,1,1e-07,1,-0.091346152126789,1,0.1802884638309478,1,0.1322115361690521,1,0.072115384042263,1,-0.0240384619683027,1,-0.0961538478732109,1,-0.0961538478732109,1
164,-0.060096152126789,1,-0.2043269276618957,1,-0.144230768084526,1,0.1322115361690521,1,0.040865384042263,1,-0.175480768084526,1,0.2403846085071563,1,0.2163461595773697,1,0.1322115361690521,1,-0.0120192309841513,1,-0.1201923042535781,1,-0.1322115361690521,1
165,-0.060096152126789,1,-0.2043269276618957,1,-0.144230768084526,1,0.1322115361690521,1,0.040865384042263,1,-0.175480768084526,1,0.2403846085071563,1,0.2163461595773697,1,0.1322115361690521,1,-0.0120192309841513,1,-0.1201923042535781,1,-0.1322115361690521,1
166,-0.0240384619683027,1,-0.2524038553237915,1,-0.2283653914928436,1,0.1370192319154739,1,0.1009615361690521,1,-0.2403846085071563,1,0.2283653914928436,1,0.3004807829856872,1,0.2524038553237915,1,0.072115384042263,1,-0.0961538478732109,1,-0.15625,1
167,-0.0240384619683027,1,-0.2524038553237915,1,-0.2283653914928436,1,0.1370192319154739,1,0.1009615361690521,1,-0.2403846085071563,1,0.2283653914928436,1,0.3004807829856872,1,0.2524038553237915,1,0.072115384042263,1,-0.0961538478732109,1,-0.15625,1
168,0.072115384042263,1,-0.1802884638309478,1,-0.2524038553237915,1,0.0528846159577369,1,0.1610576957464218,1,-0.2163461595773697,1,0.1682692319154739,1,0.4206730723381042,1,0.4927884638309479,1,0.2884615361690521,1,0.0240384619683027,1,-0.1081730797886848,1
169,0.072115384042263,1,-0.1802884638309478,1,-0.2524038553237915,1,0.0528846159577369,1,0.1610576957464218,1,-0.2163461595773697,1,0.1682692319154739,1,0.4206730723381042,1,0.4927884638309479,1,0.2884615361690521,1,0.0240384619683027,1,-0.1081730797886848,1
170,0.1923076957464218,1,-0.0120192309841513,1,-0.2043269276618957,1,-0.0889423042535781,1,0.1971153914928436,1,-0.1081730797886848,1,0.0961538478732109,1,0.5528846383094788,1,0.8052884340286255,1,0.6129807829856873,1,0.2283653914928436,1,-0.0120192309841513,1
171,0.1923076957464218,1,-0.0120192309841513,1,-0.2043269276618957,1,-0.0889423042535781,1,0.1971153914928436,1,-0.1081730797886848,1,0.0961538478732109,1,0.5528846383094788,1,0.8052884340286255,1,0.6129807829856873,1,0.2283653914928436,1,-0.0120192309841513,1
172,0.3485576808452606,1,0.2644230723381042,1,-0.0841346159577369,1,-0.3052884638309479,1,0.2163461595773697,1,0.091346152126789,1,-0.072115384042263,1,0.5769230723381042,1,1.1538461446762085,1,1.0817307233810425,1,0.5528846383094788,1,0.1682692319154739,1
173,0.3485576808452606,1,0.2644230723381042,1,-0.0841346159577369,1,-0.3052884638309479,1,0.2163461595773697,1,0.091346152126789,1,-0.072115384042263,1,0.5769230723381042,1,1.1538461446762085,1,1.0817307233810425,1,0.5528846383094788,1,0.1682692319154739,1
174,0.5288461446762085,1,0.661057710647583,1,0.1322115361690521,1,-0.59375,1,0.1995192319154739,1,0.3966346085071563,1,-0.46875,1,0.4206730723381042,1,1.4663461446762085,1,1.634615421295166,1,0.973557710647583,1,0.4206730723381042,1
175,0.5288461446762085,1,0.661057710647583,1,0.1322115361690521,1,-0.59375,1,0.1995192319154739,1,0.3966346085071563,1,-0.46875,1,0.4206730723381042,1,1.4663461446762085,1,1.634615421295166,1,0.973557710647583,1,0.4206730723381042,1
176,0.6370192170143127,1,1.0336538553237915,1,0.3966346085071563,1,-0.8341346383094788,1,0.1201923042535781,1,0.7163461446762085,1,-0.817307710647583,1,0.1802884638309478,1,1.5865384340286257,1,2.007211446762085,1,1.322115421295166,1,0.6730769276618958,1
177,0.6370192170143127,1,1.0336538553237915,1,0.3966346085071563,1,-0.8341346383094788,1,0.1201923042535781,1,0.7163461446762085,1,-0.817307710647583,1,0.1802884638309478,1,1.5865384340286257,1,2.007211446762085,1,1.322115421295166,1,0.6730769276618958,1
178,0.6850961446762085,1,1.213942289352417,1,0.5288461446762085,1,-0.9495192170143129,1,0.0793269202113151,1,0.8725961446762085,1,-1.09375,1,-0.0841346159577369,1,1.370192289352417,1,1.959134578704834,1,1.4302884340286257,1,0.7932692170143127,1
179,0.6850961446762085,1,1.213942289352417,1,0.5288461446762085,1,-0.9495192170143129,1,0.0793269202113151,1,0.8725961446762085,1,-1.09375,1,-0.0841346159577369,1,1.370192289352417,1,1.959134578704834,1,1.4302884340286257,1,0.7932692170143127,1
180,0.6730769276618958,1,1.3822115659713743,1,0.7091346383094788,1,-1.026442289352417,1,-0.0168269239366054,1,1.045673131942749,1,-1.25,1,-0.2764423191547394,1,1.0336538553237915,1,1.6225961446762085,1,1.370192289352417,1,0.8653846383094788,1
181,0.6730769276618958,1,1.3822115659713743,1,0.7091346383094788,1,-1.026442289352417,1,-0.0168269239366054,1,1.045673131942749,1,-1.25,1,-0.2764423191547394,1,1.0336538553237915,1,1.6225961446762085,1,1.370192289352417,1,0.8653846383094788,1
182,0.3966346085071563,1,1.1538461446762085,1,0.7572115659713745,1,-0.7740384340286255,1,-0.1802884638309478,1,0.9567307829856871,1,-1.09375,1,-0.7331730723381042,1,-0.072115384042263,1,0.6730769276618958,1,0.9375,1,0.745192289352417,1
183,0.3966346085071563,1,1.1538461446762085,1,0.7572115659713745,1,-0.7740384340286255,1,-0.1802884638309478,1,0.9567307829856871,1,-1.09375,1,-0.7331730723381042,1,-0.072115384042263,1,0.6730769276618958,1,0.9375,1,0.745192289352417,1
184,0.1802884638309478,1,1.0336538553237915,1,0.8533653616905212,1,-0.6057692170143127,1,-0.3365384638309479,1,0.9447115659713744,1,-1.129807710647583,1,-1.165865421295166,1,-0.8894230723381042,1,0.0120192309841513,1,0.625,1,0.6850961446762085,1
185,0.1802884638309478,1,1.0336538553237915,1,0.8533653616905212,1,-0.6057692170143127,1,-0.3365384638309479,1,0.9447115659713744,1,-1.129807710647583,1,-1.165865421295166,1,-0.8894230723381042,1,0.0120192309841513,1,0.625,1,0.6850961446762085,1
186,0.1081730797886848,1,0.9495192170143129,1,0.8413461446762085,1,-0.5288461446762085,1,-0.3653846085071563,1,0.8966346383094788,1,-1.201923131942749,1,-1.286057710647583,1,-1.1177884340286257,1,-0.2644230723381042,1,0.4447115361690521,1,0.6370192170143127,1
187,0.1081730797886848,1,0.9495192170143129,1,0.8413461446762085,1,-0.5288461446762085,1,-0.3653846085071563,1,0.8966346383094788,1,-1.201923131942749,1,-1.286057710647583,1,-1.1177884340286257,1,-0.2644230723381042,1,0.4447115361690521,1,0.6370192170143127,1
188,0.072115384042263,1,0.78125,1,0.7091346383094788,1,-0.4254807829856872,1,-0.3173076808452606,1,0.745192289352417,1,-1.201923131942749,1,-1.2620192766189575,1,-1.1538461446762085,1,-0.4567307829856872,1,0.2644230723381042,1,0.5288461446762085,1
189,0.072115384042263,1,0.78125,1,0.7091346383094788,1,-0.4254807829856872,1,-0.3173076808452606,1,0.745192289352417,1,-1.201923131942749,1,-1.2620192766189575,1,-1.1538461446762085,1,-0.4567307829856872,1,0.2644230723381042,1,0.5288461446762085,1
190,0.0240384619683027,1,0.6971153616905212,1,0.6730769276618958,1,-0.3605769276618957,1,-0.3245192170143127,1,0.6850961446762085,1,-1.057692289352417,1,-1.1057692766189575,1,-1.0336538553237915,1,-0.4807692170143127,1,0.144230768084526,1,0.4567307829856872,1
191,0.0240384619683027,1,0.6971153616905212,1,0.6730769276618958,1,-0.3605769276618957,1,-0.3245192170143127,1,0.6850961446762085,1,-1.057692289352417,1,-1.1057692766189575,1,-1.0336538553237915,1,-0.4807692170143127,1,0.144230768084526,1,0.4567307829856872,1
192,-0.0120192309841513,1,0.5769230723381042,1,0.588942289352417,1,-0.28125,1,-0.3004807829856872,1,0.5817307829856873,1,-0.8533653616905212,1,-0.9134615659713744,1,-0.8533653616905212,1,-0.4447115361690521,1,0.0480769239366054,1,0.3485576808452606,1
193,-0.0120192309841513,1,0.5769230723381042,1,0.588942289352417,1,-0.28125,1,-0.3004807829856872,1,0.5817307829856873,1,-0.8533653616905212,1,-0.9134615659713744,1,-0.8533653616905212,1,-0.4447115361690521,1,0.0480769239366054,1,0.3485576808452606,1
194,-0.0360576920211315,1,0.2884615361690521,1,0.3245192170143127,1,-0.125,1,-0.1802884638309478,1,0.3052884638309479,1,-0.6129807829856873,1,-0.661057710647583,1,-0.6490384340286255,1,-0.3846153914928436,1,-0.0240384619683027,1,0.2043269276618957,1
195,-0.0360576920211315,1,0.2884615361690521,1,0.3245192170143127,1,-0.125,1,-0.1802884638309478,1,0.3052884638309479,1,-0.6129807829856873,1,-0.661057710647583,1,-0.6490384340286255,1,-0.3846153914928436,1,-0.0240384619683027,1,0.2043269276618957,1
196,-0.0360576920211315,1,0.15625,1,0.1923076957464218,1,-0.060096152126789,1,-0.112980768084526,1,0.1730769276618957,1,-0.4206730723381042,1,-0.46875,1,-0.4807692170143127,1,-0.3125,1,-0.0480769239366054,1,0.1322115361690521,1
197,-0.0360576920211315,1,0.15625,1,0.1923076957464218,1,-0.060096152126789,1,-0.112980768084526,1,0.1730769276618957,1,-0.4206730723381042,1,-0.46875,1,-0.4807692170143127,1,-0.3125,1,-0.0480769239366054,1,0.1322115361690521,1
198,-0.0120192309841513,1,0.1081730797886848,1,0.1201923042535781,1,-0.0480769239366054,1,-0.0649038478732109,1,0.112980768084526,1,-0.2884615361690521,1,-0.3245192170143127,1,-0.3365384638309479,1,-0.2283653914928436,1,-0.0360576920211315,1,0.0841346159577369,1
199,-0.0120192309841513,1,0.1081730797886848,1,0.1201923042535781,1,-0.0480769239366054,1,-0.0649038478732109,1,0.112980768084526,1,-0.2884615361690521,1,-0.3245192170143127,1,-0.3365384638309479,1,-0.2283653914928436,1,-0.0360576920211315,1,0.0841346159577369,1
200,1e-07,1,0.072115384042263,1,0.072115384042263,1,-0.0360576920211315,1,-0.0360576920211315,1,0.072115384042263,1,-0.1802884638309478,1,-0.1923076957464218,1,-0.2163461595773697,1,-0.15625,1,-0.0360576920211315,1,0.060096152126789,1
201,1e-07,0,0.072115384042263,1,0.072115384042263,1,-0.0360576920211315,1,-0.0360576920211315,1,0.072115384042263,1,-0.1802884638309478,1,-0.1923076957464218,1,-0.2163461595773697,1,-0.15625,1,-0.0360576920211315,1,0.060096152126789,1
202,1e-07,0,1e-07,1,1e-07,1,1e-07,1,1e-07,1,1e-07,1,-0.1081730797886848,1,-0.1201923042535781,1,-0.144230768084526,1,-0.1081730797886848,1,-0.0240384619683027,0,0.0240384619683027,1
203,1e-07,0,1e-07,1,1e-07,1,1e-07,0,1e-07,1,1e-07,1,-0.1081730797886848,1,-0.1201923042535781,1,-0.144230768084526,1,-0.1081730797886848,1,-0.0240384619683027,0,0.0240384619683027,1
204,1e-07,0,-0.0120192309841513,1,-0.0120192309841513,1,0.0048076924867928,0,0.0048076924867928,1,-0.0120192309841513,1,-0.072115384042263,1,-0.072115384042263,1,-0.0961538478732109,1,-0.0841346159577369,1,-0.0240384619683027,0,0.0120192309841513,1
205,1e-07,0,-0.0120192309841513,1,-0.0120192309841513,1,0.0048076924867928,0,0.0048076924867928,1,-0.0120192309841513,1,-0.072115384042263,1,-0.072115384042263,1,-0.0961538478732109,1,-0.0841346159577369,1,-0.0240384619683027,0,0.0120192309841513,1
206,-0.0120192309841513,0,-0.0240384619683027,1,-0.0120192309841513,1,0.0168269239366054,0,1e-07,0,-0.0192307699471712,1,-0.0360576920211315,1,-0.0360576920211315,1,-0.0480769239366054,1,-0.060096152126789,1,-0.0240384619683027,0,1e-07,1
207,-0.0120192309841513,0,-0.0240384619683027,1,-0.0120192309841513,1,0.0168269239366054,0,1e-07,0,-0.0192307699471712,1,-0.0360576920211315,1,-0.0360576920211315,1,-0.0480769239366054,1,-0.060096152126789,1,-0.0240384619683027,0,1e-07,1
208,-0.0120192309841513,0,-0.0480769239366054,1,-0.0360576920211315,1,0.0288461539894342,0,0.0120192309841513,0,-0.0432692319154739,1,1e-07,1,1e-07,0,-0.0120192309841513,1,-0.0480769239366054,1,-0.0240384619683027,0,-0.0240384619683027,1
209,-0.0120192309841513,0,-0.0480769239366054,1,-0.0360576920211315,1,0.0288461539894342,0,0.0120192309841513,0,-0.0432692319154739,1,1e-07,1,1e-07,0,-0.0120192309841513,0,-0.0480769239366054,1,-0.0240384619683027,0,-0.0240384619683027,1
210,-0.0120192309841513,0,-0.060096152126789,0,-0.0480769239366054,1,0.0360576920211315,0,0.0168269239366054,0,-0.0552884601056575,0,0.0120192309841513,1,0.0240384619683027,0,1e-07,0,-0.0360576920211315,1,-0.0240384619683027,0,-0.0240384619683027,1
211,-0.0120192309841513,0,-0.060096152126789,0,-0.0480769239366054,1,0.0360576920211315,0,0.0168269239366054,0,-0.0552884601056575,0,0.0120192309841513,0,0.0240384619683027,0,1e-07,0,-0.0360576920211315,1,-0.0240384619683027,0,-0.0240384619683027,1
212,-0.0120192309841513,0,-0.0841346159577369,0,-0.072115384042263,0,0.0480769239366054,0,0.0288461539894342,0,-0.0793269202113151,0,0.0120192309841513,0,0.0240384619683027,0,1e-07,0,-0.0360576920211315,0,-0.0360576920211315,0,-0.0240384619683027,1
213,-0.0120192309841513,0,-0.0841346159577369,0,-0.072115384042263,0,0.0480769239366054,0,0.0288461539894342,0,-0.0793269202113151,0,0.0120192309841513,0,0.0240384619683027,0,1e-07,0,-0.0360576920211315,0,-0.0360576920211315,0,-0.0240384619683027,1
214,-0.0120192309841513,0,-0.0841346159577369,0,-0.072115384042263,0,0.0480769239366054,0,0.0288461539894342,0,-0.0793269202113151,0,0.0240384619683027,0,0.0360576920211315,0,0.0120192309841513,0,-0.0360576920211315,0,-0.0360576920211315,0,-0.0360576920211315,1
215,-0.0120192309841513,0,-0.0841346159577369,0,-0.072115384042263,0,0.0480769239366054,0,0.0288461539894342,0,-0.0793269202113151,0,0.0240384619683027,0,0.0360576920211315,0,0.0120192309841513,0,-0.0360576920211315,0,-0.0360576920211315,0,-0.0360576920211315,1
216,-0.0120192309841513,0,-0.0961538478732109,0,-0.0841346159577369,0,0.0528846159577369,0,0.0360576920211315,0,-0.091346152126789,0,0.0360576920211315,0,0.0480769239366054,0,0.0360576920211315,0,-0.0240384619683027,0,-0.0360576920211315,0,-0.0360576920211315,1
217,-0.0120192309841513,0,-0.0961538478732109,0,-0.0841346159577369,0,0.0528846159577369,0,0.0360576920211315,0,-0.091346152126789,0,0.0360576920211315,0,0.0480769239366054,0,0.0360576920211315,0,-0.0240384619683027,0,-0.0360576920211315,0,-0.0360576920211315,0
218,-0.0120192309841513,0,-0.1081730797886848,0,-0.0961538478732109,0,0.060096152126789,0,0.040865384042263,0,-0.103365384042263,0,0.0360576920211315,0,0.060096152126789,0,0.0360576920211315,0,-0.0120192309841513,0,-0.0360576920211315,0,-0.0480769239366054,1
219,-0.0120192309841513,0,-0.1081730797886848,0,-0.0961538478732109,0,0.060096152126789,0,0.040865384042263,0,-0.103365384042263,0,0.0360576920211315,0,0.060096152126789,0,0.0360576920211315,0,-0.0120192309841513,0,-0.0360576920211315,0,-0.0480769239366054,0
220,-0.0120192309841513,0,-0.1081730797886848,0,-0.0961538478732109,0,0.060096152126789,0,0.040865384042263,0,-0.103365384042263,0,0.0480769239366054,0,0.060096152126789,0,0.0360576920211315,0,-0.0240384619683027,0,-0.0480769239366054,0,-0.0480769239366054,0
221,-0.0120192309841513,0,-0.1081730797886848,0,-0.0961538478732109,0,0.060096152126789,0,0.040865384042263,0,-0.103365384042263,0,0.0480769239366054,0,0.060096152126789,0,0.0360576920211315,0,-0.0240384619683027,0,-0.0480769239366054,0,-0.0480769239366054,0
222,1e-07,0,-0.1081730797886848,0,-0.1081730797886848,0,0.0528846159577369,0,0.0528846159577369,0,-0.1081730797886848,0,0.0480769239366054,0,0.072115384042263,0,0.0480769239366054,0,-0.0240384619683027,0,-0.0360576920211315,0,-0.0480769239366054,0
223,1e-07,0,-0.1081730797886848,0,-0.1081730797886848,0,0.0528846159577369,0,0.0528846159577369,0,-0.1081730797886848,0,0.0480769239366054,0,0.072115384042263,0,0.0480769239366054,0,-0.0240384619683027,0,-0.0360576920211315,0,-0.0480769239366054,0
224,-0.0120192309841513,0,-0.1081730797886848,0,-0.0961538478732109,0,0.060096152126789,0,0.040865384042263,0,-0.103365384042263,0,0.0480769239366054,0,0.072115384042263,0,0.0480769239366054,0,-0.0120192309841513,0,-0.0360576920211315,0,-0.0480769239366054,0
225,-0.0120192309841513,0,-0.1081730797886848,0,-0.0961538478732109,0,0.060096152126789,0,0.040865384042263,0,-0.103365384042263,0,0.0480769239366054,0,0.072115384042263,0,0.0480769239366054,0,-0.0120192309841513,0,-0.0360576920211315,0,-0.0480769239366054,0
226,-0.0120192309841513,0,-0.1322115361690521,0,-0.1201923042535781,0,0.072115384042263,0,0.0528846159577369,0,-0.1274038404226303,0,0.060096152126789,0,0.0841346159577369,0,0.060096152126789,0,-0.0120192309841513,0,-0.0480769239366054,0,-0.060096152126789,0
227,-0.0120192309841513,0,-0.1322115361690521,0,-0.1201923042535781,0,0.072115384042263,0,0.0528846159577369,0,-0.1274038404226303,0,0.060096152126789,0,0.0841346159577369,0,0.060096152126789,0,-0.0120192309841513,0,-0.0480769239366054,0,-0.060096152126789,0
228,1e-07,0,-0.1201923042535781,0,-0.1201923042535781,0,0.060096152126789,0,0.060096152126789,0,-0.1201923042535781,0,0.060096152126789,0,0.0841346159577369,0,0.060096152126789,0,-0.0120192309841513,0,-0.0360576920211315,0,-0.060096152126789,0
229,1e-07,0,-0.1201923042535781,0,-0.1201923042535781,0,0.060096152126789,0,0.060096152126789,0,-0.1201923042535781,0,0.060096152126789,0,0.0841346159577369,0,0.060096152126789,0,-0.0120192309841513,0,-0.0360576920211315,0,-0.060096152126789,0
230,1e-07,0,-0.1081730797886848,0,-0.1081730797886848,0,0.0528846159577369,0,0.0528846159577369,0,-0.1081730797886848,0,0.060096152126789,0,0.0841346159577369,0,0.060096152126789,0,-0.0120192309841513,0,-0.0360576920211315,0,-0.060096152126789,0
231,1e-07,0,-0.1081730797886848,0,-0.1081730797886848,0,0.0528846159577369,0,0.0528846159577369,0,-0.1081730797886848,0,0.060096152126789,0,0.0841346159577369,0,0.060096152126789,0,-0.0120192309841513,0,-0.0360576920211315,0,-0.060096152126789,0
232,1e-07,0,-0.1201923042535781,0,-0.1201923042535781,0,0.060096152126789,0,0.060096152126789,0,-0.1201923042535781,0,0.060096152126789,0,0.0961538478732109,0,0.072115384042263,0,-0.0120192309841513,0,-0.0480769239366054,0,-0.060096152126789,0
233,1e-07,0,-0.1201923042535781,0,-0.1201923042535781,0,0.060096152126789,0,0.060096152126789,0,-0.1201923042535781,0,0.060096152126789,0,0.0961538478732109,0,0.072115384042263,0,-0.0120192309841513,0,-0.0480769239366054,0,-0.060096152126789,0
234,1e-07,0,-0.1201923042535781,0,-0.1201923042535781,0,0.060096152126789,0,0.060096152126789,0,-0.1201923042535781,0,0.060096152126789,0,0.0961538478732109,0,0.072115384042263,0,-0.0120192309841513,0,-0.0480769239366054,0,-0.060096152126789,0
235,1e-07,0,-0.1201923042535781,0,-0.1201923042535781,0,0.060096152126789,0,0.060096152126789,0,-0.1201923042535781,0,0.060096152126789,0,0.0961538478732109,0,0.072115384042263,0,-0.0120192309841513,0,-0.0480769239366054,0,-0.060096152126789,0
236,1e-07,0,-0.1201923042535781,0,-0.1201923042535781,0,0.060096152126789,0,0.060096152126789,0,-0.1201923042535781,0,0.072115384042263,0,0.1081730797886848,0,0.0841346159577369,0,1e-07,0,-0.0360576920211315,0,-0.060096152126789,0
237,1e-07,0,-0.1201923042535781,0,-0.1201923042535781,0,0.060096152126789,0,0.060096152126789,0,-0.1201923042535781,0,0.072115384042263,0,0.1081730797886848,0,0.0841346159577369,0,1e-07,0,-0.0360576920211315,0,-0.060096152126789,0
238,1e-07,0,-0.1201923042535781,0,-0.1201923042535781,0,0.060096152126789,0,0.060096152126789,0,-0.1201923042535781,0,0.072115384042263,0,0.1201923042535781,0,0.0961538478732109,0,1e-07,0,-0.0360576920211315,0,-0.060096152126789,0
239,1e-07,0,-0.1201923042535781,0,-0.1201923042535781,0,0.060096152126789,0,0.060096152126789,0,-0.1201923042535781,0,0.072115384042263,0,0.1201923042535781,0,0.0961538478732109,0,1e-07,0,-0.0360576920211315,0,-0.060096152126789,0
240,1e-07,0,-0.1322115361690521,0,-0.1322115361690521,0,0.0649038478732109,0,0.0649038478732109,0,-0.1322115361690521,0,0.0841346159577369,0,0.1201923042535781,0,0.0961538478732109,0,0.0240384619683027,0,-0.0360576920211315,0,-0.060096152126789,0
241,1e-07,0,-0.1322115361690521,0,-0.1322115361690521,0,0.0649038478732109,0,0.0649038478732109,0,-0.1322115361690521,0,0.0841346159577369,0,0.1201923042535781,0,0.0961538478732109,0,0.0240384619683027,0,-0.0360576920211315,0,-0.060096152126789,0
242,1e-07,0,-0.1322115361690521,0,-0.1322115361690521,0,0.0649038478732109,0,0.0649038478732109,0,-0.1322115361690521,0,0.0841346159577369,0,0.1322115361690521,0,0.1081730797886848,0,0.0240384619683027,0,-0.0360576920211315,0,-0.060096152126789,0
243,1e-07,0,-0.1322115361690521,0,-0.1322115361690521,0,0.0649038478732109,0,0.0649038478732109,0,-0.1322115361690521,0,0.0841346159577369,0,0.1322115361690521,0,0.1081730797886848,0,0.0240384619683027,0,-0.0360576920211315,0,-0.060096152126789,0
244,1e-07,0,-0.1322115361690521,0,-0.1322115361690521,0,0.0649038478732109,0,0.0649038478732109,0,-0.1322115361690521,0,0.0841346159577369,0,0.1322115361690521,0,0.1081730797886848,0,0.0240384619683027,0,-0.0360576920211315,0,-0.072115384042263,0
245,1e-07,0,-0.1322115361690521,0,-0.1322115361690521,0,0.0649038478732109,0,0.0649038478732109,0,-0.1322115361690521,0,0.0841346159577369,0,0.1322115361690521,0,0.1081730797886848,0,0.0240384619683027,0,-0.0360576920211315,0,-0.072115384042263,0
246,0.0120192309841513,0,-0.1201923042535781,0,-0.1322115361690521,0,0.0528846159577369,0,0.072115384042263,0,-0.125,0,0.0841346159577369,0,0.144230768084526,0,0.1201923042535781,0,0.0240384619683027,0,-0.0360576920211315,0,-0.072115384042263,0
247,0.0120192309841513,0,-0.1201923042535781,0,-0.1322115361690521,0,0.0528846159577369,0,0.072115384042263,0,-0.125,0,0.0841346159577369,0,0.144230768084526,0,0.1201923042535781,0,0.0240384619683027,0,-0.0360576920211315,0,-0.072115384042263,0
248,0.0120192309841513,0,-0.1201923042535781,0,-0.1322115361690521,0,0.0528846159577369,0,0.072115384042263,0,-0.125,0,0.0841346159577369,0,0.144230768084526,0,0.1201923042535781,0,0.0360576920211315,0,-0.0360576920211315,0,-0.060096152126789,0
249,0.0120192309841513,0,-0.1201923042535781,0,-0.1322115361690521,0,0.0528846159577369,0,0.072115384042263,0,-0.125,0,0.0841346159577369,0,0.144230768084526,0,0.1201923042535781,0,0.0360576920211315,0,-0.0360576920211315,0,-0.060096152126789,0
250,0.0120192309841513,0,-0.1322115361690521,0,-0.144230768084526,0,0.060096152126789,0,0.0769230797886848,0,-0.1370192319154739,0,0.0961538478732109,0,0.15625,0,0.1322115361690521,0,0.0360576920211315,0,-0.0360576920211315,0,-0.060096152126789,0
251,0.0120192309841513,0,-0.1322115361690521,0,-0.144230768084526,0,0.060096152126789,0,0.0769230797886848,0,-0.1370192319154739,0,0.0961538478732109,0,0.15625,0,0.1322115361690521,0,0.0360576920211315,0,-0.0360576920211315,0,-0.060096152126789,0
252,0.0120192309841513,0,-0.144230768084526,0,-0.15625,0,0.0649038478732109,0,0.0841346159577369,0,-0.1490384638309478,0,0.0961538478732109,0,0.1682692319154739,0,0.144230768084526,0,0.0360576920211315,0,-0.0360576920211315,0,-0.072115384042263,0
253,0.0120192309841513,0,-0.144230768084526,0,-0.15625,0,0.0649038478732109,0,0.0841346159577369,0,-0.1490384638309478,0,0.0961538478732109,0,0.1682692319154739,0,0.144230768084526,0,0.0360576920211315,0,-0.0360576920211315,0,-0.072115384042263,0
254,0.0120192309841513,0,-0.144230768084526,0,-0.15625,0,0.0649038478732109,0,0.0841346159577369,0,-0.1490384638309478,0,0.1081730797886848,0,0.1802884638309478,0,0.15625,0,0.0480769239366054,0,-0.0360576920211315,0,-0.072115384042263,0
255,0.0120192309841513,0,-0.144230768084526,0,-0.15625,0,0.0649038478732109,0,0.0841346159577369,0,-0.1490384638309478,0,0.1081730797886848,0,0.1802884638309478,0,0.15625,0,0.0480769239366054,0,-0.0360576920211315,0,-0.072115384042263,0
256,0.0120192309841513,0,-0.144230768084526,0,-0.15625,0,0.0649038478732109,0,0.0841346159577369,0,-0.1490384638309478,0,0.1081730797886848,0,0.1802884638309478,0,0.15625,0,0.0480769239366054,0,-0.0360576920211315,0,-0.072115384042263,0
257,0.0120192309841513,0,-0.144230768084526,0,-0.15625,0,0.0649038478732109,0,0.0841346159577369,0,-0.1490384638309478,0,0.1081730797886848,0,0.1802884638309478,0,0.15625,0,0.0480769239366054,0,-0.0360576920211315,0,-0.072115384042263,0
258,0.0120192309841513,0,-0.144230768084526,0,-0.15625,0,0.0649038478732109,0,0.0841346159577369,0,-0.1490384638309478,0,0.1081730797886848,0,0.1923076957464218,0,0.1682692319154739,0,0.060096152126789,0,-0.0240384619683027,0,-0.072115384042263,0
259,0.0120192309841513,0,-0.144230768084526,0,-0.15625,0,0.0649038478732109,0,0.0841346159577369,0,-0.1490384638309478,0,0.1081730797886848,0,0.1923076957464218,0,0.1682692319154739,0,0.060096152126789,0,-0.0240384619683027,0,-0.072115384042263,0
260,0.0240384619683027,0,-0.144230768084526,0,-0.1682692319154739,0,0.060096152126789,0,0.0961538478732109,0,-0.15625,0,0.1201923042535781,0,0.2043269276618957,0,0.1802884638309478,0,0.060096152126789,0,-0.0360576920211315,0,-0.072115384042263,0
261,0.0240384619683027,0,-0.144230768084526,0,-0.1682692319154739,0,0.060096152126789,0,0.0961538478732109,0,-0.15625,0,0.1201923042535781,0,0.2043269276618957,0,0.1802884638309478,0,0.060096152126789,0,-0.0360576920211315,0,-0.072115384042263,0
262,0.0240384619683027,0,-0.1322115361690521,0,-0.15625,0,0.0528846159577369,0,0.0889423042535781,0,-0.144230768084526,0,0.1201923042535781,0,0.2043269276618957,0,0.1802884638309478,0,0.060096152126789,0,-0.0240384619683027,0,-0.072115384042263,0
263,0.0240384619683027,0,-0.1322115361690521,0,-0.15625,0,0.0528846159577369,0,0.0889423042535781,0,-0.144230768084526,0,0.1201923042535781,0,0.2043269276618957,0,0.1802884638309478,0,0.060096152126789,0,-0.0240384619683027,0,-0.072115384042263,0
264,0.0240384619683027,0,-0.1322115361690521,0,-0.15625,0,0.0528846159577369,0,0.0889423042535781,0,-0.144230768084526,0,0.1201923042535781,0,0.2163461595773697,0,0.1923076957464218,0,0.060096152126789,0,-0.0240384619683027,0,-0.072115384042263,0
265,0.0240384619683027,0,-0.1322115361690521,0,-0.15625,0,0.0528846159577369,0,0.0889423042535781,0,-0.144230768084526,0,0.1201923042535781,0,0.2163461595773697,0,0.1923076957464218,0,0.060096152126789,0,-0.0240384619683027,0,-0.072115384042263,0
266,0.0240384619683027,0,-0.144230768084526,0,-0.1682692319154739,0,0.060096152126789,0,0.0961538478732109,0,-0.15625,0,0.1322115361690521,0,0.2283653914928436,0,0.2043269276618957,0,0.060096152126789,0,-0.0360576920211315,0,-0.0841346159577369,0
267,0.0240384619683027,0,-0.144230768084526,0,-0.1682692319154739,0,0.060096152126789,0,0.0961538478732109,0,-0.15625,0,0.1322115361690521,0,0.2283653914928436,0,0.2043269276618957,0,0.060096152126789,0,-0.0360576920211315,0,-0.0841346159577369,0
268,0.0360576920211315,0,-0.144230768084526,0,-0.1802884638309478,0,0.0528846159577369,0,0.1081730797886848,0,-0.1610576957464218,0,0.1322115361690521,0,0.2524038553237915,0,0.2163461595773697,0,0.072115384042263,0,-0.0240384619683027,0,-0.072115384042263,0
269,0.0360576920211315,0,-0.144230768084526,0,-0.1802884638309478,0,0.0528846159577369,0,0.1081730797886848,0,-0.1610576957464218,0,0.1322115361690521,0,0.2524038553237915,0,0.2163461595773697,0,0.072115384042263,0,-0.0240384619683027,0,-0.072115384042263,0
270,0.0360576920211315,0,-0.144230768084526,0,-0.1802884638309478,0,0.0528846159577369,0,0.1081730797886848,0,-0.1610576957464218,0,0.144230768084526,0,0.2644230723381042,0,0.2283653914928436,0,0.072115384042263,0,-0.0240384619683027,0,-0.0841346159577369,0
271,0.0360576920211315,0,-0.144230768084526,0,-0.1802884638309478,0,0.0528846159577369,0,0.1081730797886848,0,-0.1610576957464218,0,0.144230768084526,0,0.2644230723381042,0,0.2283653914928436,0,0.072115384042263,0,-0.0240384619683027,0,-0.0841346159577369,0
272,0.0360576920211315,0,-0.15625,0,-0.1923076957464218,0,0.060096152126789,0,0.112980768084526,0,-0.1730769276618957,0,0.144230768084526,0,0.2764423191547394,0,0.2403846085071563,0,0.0841346159577369,0,-0.0240384619683027,0,-0.072115384042263,0
273,0.0360576920211315,0,-0.15625,0,-0.1923076957464218,0,0.060096152126789,0,0.112980768084526,0,-0.1730769276618957,0,0.144230768084526,0,0.2764423191547394,0,0.2403846085071563,0,0.0841346159577369,0,-0.0240384619683027,0,-0.072115384042263,0
274,0.0360576920211315,0,-0.15625,0,-0.1923076957464218,0,0.060096152126789,0,0.112980768084526,0,-0.1730769276618957,0,0.15625,0,0.2884615361690521,0,0.2644230723381042,0,0.0961538478732109,0,-0.0120192309841513,0,-0.0841346159577369,0
275,0.0360576920211315,0,-0.15625,0,-0.1923076957464218,0,0.060096152126789,0,0.112980768084526,0,-0.1730769276618957,0,0.15625,0,0.2884615361690521,0,0.2644230723381042,0,0.0961538478732109,0,-0.0120192309841513,0,-0.0841346159577369,0
276,0.0480769239366054,0,-0.1682692319154739,0,-0.2163461595773697,0,0.060096152126789,0,0.1322115361690521,0,-0.1923076957464218,0,0.1682692319154739,0,0.3125,0,0.2764423191547394,0,0.1081730797886848,0,-0.0120192309841513,0,-0.0841346159577369,0
277,0.0480769239366054,0,-0.1682692319154739,0,-0.2163461595773697,0,0.060096152126789,0,0.1322115361690521,0,-0.1923076957464218,0,0.1682692319154739,0,0.3125,0,0.2764423191547394,0,0.1081730797886848,0,-0.0120192309841513,0,-0.0841346159577369,0
278,0.0480769239366054,0,-0.1682692319154739,0,-0.2163461595773697,0,0.060096152126789,0,0.1322115361690521,0,-0.1923076957464218,0,0.1802884638309478,0,0.3245192170143127,0,0.2884615361690521,0,0.1081730797886848,0,-0.0120192309841513,0,-0.0841346159577369,0
279,0.0480769239366054,0,-0.1682692319154739,0,-0.2163461595773697,0,0.060096152126789,0,0.1322115361690521,0,-0.1923076957464218,0,0.1802884638309478,0,0.3245192170143127,0,0.2884615361690521,0,0.1081730797886848,0,-0.0120192309841513,0,-0.0841346159577369,0
280,0.060096152126789,0,-0.1682692319154739,0,-0.2283653914928436,0,0.0528846159577369,0,0.144230768084526,0,-0.1971153914928436,0,0.1802884638309478,0,0.3485576808452606,0,0.3125,0,0.1201923042535781,0,-0.0120192309841513,0,-0.0841346159577369,0
281,0.060096152126789,0,-0.1682692319154739,0,-0.2283653914928436,0,0.0528846159577369,0,0.144230768084526,0,-0.1971153914928436,0,0.1802884638309478,0,0.3485576808452606,0,0.3125,0,0.1201923042535781,0,-0.0120192309841513,0,-0.0841346159577369,0
282,0.060096152126789,0,-0.1682692319154739,0,-0.2283653914928436,0,0.0528846159577369,0,0.144230768084526,0,-0.1971153914928436,0,0.1923076957464218,0,0.3605769276618957,0,0.3245192170143127,0,0.1201923042535781,0,-0.0120192309841513,0,-0.0841346159577369,0
283,0.060096152126789,0,-0.1682692319154739,0,-0.2283653914928436,0,0.0528846159577369,0,0.144230768084526,0,-0.1971153914928436,0,0.1923076957464218,0,0.3605769276618957,0,0.3245192170143127,0,0.1201923042535781,0,-0.0120192309841513,0,-0.0841346159577369,0
284,0.060096152126789,0,-0.1682692319154739,0,-0.2283653914928436,0,0.0528846159577369,0,0.144230768084526,0,-0.1971153914928436,0,0.1923076957464218,0,0.3725961446762085,0,0.3365384638309479,0,0.1201923042535781,0,-0.0120192309841513,0,-0.0841346159577369,0
285,0.060096152126789,0,-0.1682692319154739,0,-0.2283653914928436,0,0.0528846159577369,0,0.144230768084526,0,-0.1971153914928436,0,0.1923076957464218,0,0.3725961446762085,0,0.3365384638309479,0,0.1201923042535781,0,-0.0120192309841513,0,-0.0841346159577369,0
286,0.072115384042263,0,-0.1682692319154739,0,-0.2403846085071563,0,0.0480769239366054,0,0.15625,0,-0.2043269276618957,0,0.2043269276618957,0,0.3966346085071563,0,0.3485576808452606,0,0.1322115361690521,0,-0.0120192309841513,0,-0.0841346159577369,0
287,0.072115384042263,0,-0.1682692319154739,0,-0.2403846085071563,0,0.0480769239366054,0,0.15625,0,-0.2043269276618957,0,0.2043269276618957,0,0.3966346085071563,0,0.3485576808452606,0,0.1322115361690521,0,-0.0120192309841513,0,-0.0841346159577369,0
288,0.072115384042263,0,-0.1802884638309478,0,-0.2524038553237915,0,0.0528846159577369,0,0.1610576957464218,0,-0.2163461595773697,0,0.2163461595773697,0,0.4086538553237915,0,0.3725961446762085,0,0.144230768084526,0,1e-07,0,-0.0961538478732109,0
289,0.072115384042263,0,-0.1802884638309478,0,-0.2524038553237915,0,0.0528846159577369,0,0.1610576957464218,0,-0.2163461595773697,0,0.2163461595773697,0,0.4086538553237915,0,0.3725961446762085,0,0.144230768084526,0,1e-07,0,-0.0961538478732109,0
290,0.072115384042263,0,-0.1802884638309478,0,-0.2524038553237915,0,0.0528846159577369,0,0.1610576957464218,0,-0.2163461595773697,0,0.2163461595773697,0,0.4326923191547394,0,0.3725961446762085,0,0.15625,0,1e-07,0,-0.0961538478732109,0
291,0.072115384042263,0,-0.1802884638309478,0,-0.2524038553237915,0,0.0528846159577369,0,0.1610576957464218,0,-0.2163461595773697,0,0.2163461595773697,0,0.4326923191547394,0,0.3725961446762085,0,0.15625,0,1e-07,0,-0.0961538478732109,0
292,0.0841346159577369,0,-0.1802884638309478,0,-0.2644230723381042,0,0.0480769239366054,0,0.1730769276618957,0,-0.2211538404226303,0,0.2283653914928436,0,0.4447115361690521,0,0.3846153914928436,0,0.15625,0,1e-07,0,-0.0961538478732109,0
293,0.0841346159577369,0,-0.1802884638309478,0,-0.2644230723381042,0,0.0480769239366054,0,0.1730769276618957,0,-0.2211538404226303,0,0.2283653914928436,0,0.4447115361690521,0,0.3846153914928436,0,0.15625,0,1e-07,0,-0.0961538478732109,0
294,0.0841346159577369,0,-0.1802884638309478,0,-0.2644230723381042,0,0.0480769239366054,0,0.1730769276618957,0,-0.2211538404226303,0,0.2283653914928436,0,0.46875,0,0.4086538553237915,0,0.1802884638309478,0,0.0120192309841513,0,-0.0841346159577369,0
295,0.0841346159577369,0,-0.1802884638309478,0,-0.2644230723381042,0,0.0480769239366054,0,0.1730769276618957,0,-0.2211538404226303,0,0.2283653914928436,0,0.46875,0,0.4086538553237915,0,0.1802884638309478,0,0.0120192309841513,0,-0.0841346159577369,0
296,0.0961538478732109,0,-0.1923076957464218,0,-0.2884615361690521,0,0.0480769239366054,0,0.1923076957464218,0,-0.2403846085071563,0,0.2403846085071563,0,0.4807692170143127,0,0.4206730723381042,0,0.1802884638309478,0,0.0120192309841513,0,-0.0841346159577369,0
297,0.0961538478732109,0,-0.1923076957464218,0,-0.2884615361690521,0,0.0480769239366054,0,0.1923076957464218,0,-0.2403846085071563,0,0.2403846085071563,0,0.4807692170143127,0,0.4206730723381042,0,0.1802884638309478,0,0.0120192309841513,0,-0.0841346159577369,0
298,0.0961538478732109,0,-0.1923076957464218,0,-0.2884615361690521,0,0.0480769239366054,0,0.1923076957464218,0,-0.2403846085071563,0,0.2403846085071563,0,0.4807692170143127,0,0.4206730723381042,0,0.1682692319154739,0,0.0120192309841513,0,-0.0961538478732109,0
299,0.0961538478732109,0,-0.1923076957464218,0,-0.2884615361690521,0,0.0480769239366054,0,0.1923076957464218,0,-0.2403846085071563,0,0.2403846085071563,0,0.4807692170143127,0,0.4206730723381042,0,0.1682692319154739,0,0.0120192309841513,0,-0.0961538478732109,0
300,0.0961538478732109,0,-0.1682692319154739,0,-0.2644230723381042,0,0.0360576920211315,0,0.1802884638309478,0,-0.2163461595773697,0,0.2403846085071563,0,0.4927884638309479,0,0.4206730723381042,0,0.1802884638309478,0,0.0120192309841513,0,-0.0841346159577369,0
301,0.0961538478732109,0,-0.1682692319154739,0,-0.2644230723381042,0,0.0360576920211315,0,0.1802884638309478,0,-0.2163461595773697,0,0.2403846085071563,0,0.4927884638309479,0,0.4206730723381042,0,0.1802884638309478,0,0.0120192309841513,0,-0.0841346159577369,0
302,0.0961538478732109,0,-0.1802884638309478,0,-0.2764423191547394,0,0.040865384042263,0,0.1850961595773697,0,-0.2283653914928436,0,0.2403846085071563,0,0.4927884638309479,0,0.4326923191547394,0,0.1802884638309478,0,0.0240384619683027,0,-0.0841346159577369,0
303,0.0961538478732109,0,-0.1802884638309478,0,-0.2764423191547394,0,0.040865384042263,0,0.1850961595773697,0,-0.2283653914928436,0,0.2403846085071563,0,0.4927884638309479,0,0.4326923191547394,0,0.1802884638309478,0,0.0240384619683027,0,-0.0841346159577369,0
304,0.1081730797886848,0,-0.1682692319154739,0,-0.2764423191547394,0,0.0288461539894342,0,0.1923076957464218,0,-0.2211538404226303,0,0.2403846085071563,0,0.4927884638309479,0,0.4326923191547394,0,0.1802884638309478,0,0.0240384619683027,0,-0.0841346159577369,0
305,0.1081730797886848,0,-0.1682692319154739,0,-0.2764423191547394,0,0.0288461539894342,0,0.1923076957464218,0,-0.2211538404226303,0,0.2403846085071563,0,0.4927884638309479,0,0.4326923191547394,0,0.1802884638309478,0,0.0240384619683027,0,-0.0841346159577369,0
306,0.1081730797886848,0,-0.15625,0,-0.2644230723381042,0,0.0240384619683027,0,0.1850961595773697,0,-0.2091346085071563,0,0.2403846085071563,0,0.4927884638309479,0,0.4326923191547394,0,0.1923076957464218,0,0.0360576920211315,0,-0.072115384042263,0
307,0.1081730797886848,0,-0.15625,0,-0.2644230723381042,0,0.0240384619683027,0,0.1850961595773697,0,-0.2091346085071563,0,0.2403846085071563,0,0.4927884638309479,0,0.4326923191547394,0,0.1923076957464218,0,0.0360576920211315,0,-0.072115384042263,0
308,0.1081730797886848,0,-0.144230768084526,0,-0.2524038553237915,0,0.0168269239366054,0,0.1802884638309478,0,-0.1971153914928436,0,0.2283653914928436,0,0.4807692170143127,0,0.4326923191547394,0,0.1923076957464218,0,0.0360576920211315,0,-0.060096152126789,0
309,0.1081730797886848,0,-0.144230768084526,0,-0.2524038553237915,0,0.0168269239366054,0,0.1802884638309478,0,-0.1971153914928436,0,0.2283653914928436,0,0.4807692170143127,0,0.4326923191547394,0,0.1923076957464218,0,0.0360576920211315,0,-0.060096152126789,0
310,0.1081730797886848,0,-0.1322115361690521,0,-0.2403846085071563,0,0.0120192309841513,0,0.1730769276618957,0,-0.1850961595773697,0,0.2163461595773697,0,0.4567307829856872,0,0.4086538553237915,0,0.1923076957464218,0,0.0480769239366054,0,-0.0480769239366054,0
311,0.1081730797886848,0,-0.1322115361690521,0,-0.2403846085071563,0,0.0120192309841513,0,0.1730769276618957,0,-0.1850961595773697,0,0.2163461595773697,0,0.4567307829856872,0,0.4086538553237915,0,0.1923076957464218,0,0.0480769239366054,0,-0.0480769239366054,0
312,0.1081730797886848,0,-0.1201923042535781,0,-0.2283653914928436,0,0.0048076924867928,0,0.1682692319154739,0,-0.1730769276618957,0,0.2043269276618957,0,0.4326923191547394,0,0.3966346085071563,0,0.1923076957464218,0,0.060096152126789,0,-0.0360576920211315,0
313,0.1081730797886848,0,-0.1201923042535781,0,-0.2283653914928436,0,0.0048076924867928,0,0.1682692319154739,0,-0.1730769276618957,0,0.2043269276618957,0,0.4326923191547394,0,0.3966346085071563,0,0.1923076957464218,0,0.060096152126789,0,-0.0360576920211315,0
314,0.0961538478732109,0,-0.0961538478732109,0,-0.1923076957464218,0,1e-07,0,0.144230768084526,0,-0.144230768084526,0,0.1802884638309478,0,0.3966346085071563,0,0.3725961446762085,0,0.1802884638309478,0,0.060096152126789,0,-0.0360576920211315,0
315,0.0961538478732109,0,-0.0961538478732109,0,-0.1923076957464218,0,1e-07,0,0.144230768084526,0,-0.144230768084526,0,0.1802884638309478,0,0.3966346085071563,0,0.3725961446762085,0,0.1802884638309478,0,0.060096152126789,0,-0.0360576920211315,0
316,0.0961538478732109,0,-0.072115384042263,0,-0.1682692319154739,0,-0.0120192309841513,0,0.1322115361690521,0,-0.1201923042535781,0,0.1682692319154739,0,0.3605769276618957,0,0.3365384638309479,0,0.1682692319154739,0,0.060096152126789,0,-0.0240384619683027,0
317,0.0961538478732109,0,-0.072115384042263,0,-0.1682692319154739,0,-0.0120192309841513,0,0.1322115361690521,0,-0.1201923042535781,0,0.1682692319154739,0,0.3605769276618957,0,0.3365384638309479,0,0.1682692319154739,0,0.060096152126789,0,-0.0240384619683027,0
318,0.0841346159577369,0,-0.0480769239366054,0,-0.1322115361690521,0,-0.0168269239366054,0,0.1081730797886848,0,-0.0889423042535781,0,0.1322115361690521,0,0.3125,0,0.3004807829856872,0,0.15625,0,0.060096152126789,0,-0.0120192309841513,0
319,0.0841346159577369,0,-0.0480769239366054,0,-0.1322115361690521,0,-0.0168269239366054,0,0.1081730797886848,0,-0.0889423042535781,0,0.1322115361690521,0,0.3125,0,0.3004807829856872,0,0.15625,0,0.060096152126789,0,-0.0120192309841513,0
320,0.0841346159577369,0,-0.0240384619683027,0,-0.1081730797886848,0,-0.0288461539894342,0,0.0961538478732109,0,-0.0649038478732109,0,0.1201923042535781,0,0.2644230723381042,0,0.2644230723381042,0,0.144230768084526,0,0.072115384042263,0,1e-07,0
321,0.0841346159577369,0,-0.0240384619683027,0,-0.1081730797886848,0,-0.0288461539894342,0,0.0961538478732109,0,-0.0649038478732109,0,0.1201923042535781,0,0.2644230723381042,0,0.2644230723381042,0,0.144230768084526,0,0.072115384042263,0,1e-07,0
322,0.072115384042263,0,-0.0120192309841513,0,-0.0841346159577369,0,-0.0288461539894342,0,0.0769230797886848,0,-0.0480769239366054,0,0.0961538478732109,0,0.2283653914928436,0,0.2283653914928436,0,0.1322115361690521,0,0.072115384042263,0,0.0120192309841513,0
323,0.072115384042263,0,-0.0120192309841513,0,-0.0841346159577369,0,-0.0288461539894342,0,0.0769230797886848,0,-0.0480769239366054,0,0.0961538478732109,0,0.2283653914928436,0,0.2283653914928436,0,0.1322115361690521,0,0.072115384042263,0,0.0120192309841513,0
324,0.060096152126789,0,1e-07,0,-0.060096152126789,0,-0.0288461539894342,0,0.060096152126789,0,-0.0288461539894342,0,0.072115384042263,0,0.1923076957464218,0,0.1923076957464218,0,0.1201923042535781,0,0.060096152126789,0,0.0120192309841513,0
325,0.060096152126789,0,1e-07,0,-0.060096152126789,0,-0.0288461539894342,0,0.060096152126789,0,-0.0288461539894342,0,0.072115384042263,0,0.1923076957464218,0,0.1923076957464218,0,0.1201923042535781,0,0.060096152126789,0,0.0120192309841513,0
326,0.060096152126789,0,0.0120192309841513,0,-0.0480769239366054,0,-0.0360576920211315,0,0.0552884601056575,0,-0.0168269239366054,0,0.060096152126789,0,0.15625,0,0.1682692319154739,0,0.1081730797886848,0,0.060096152126789,0,0.0240384619683027,0
327,0.060096152126789,0,0.0120192309841513,0,-0.0480769239366054,0,-0.0360576920211315,0,0.0552884601056575,0,-0.0168269239366054,0,0.060096152126789,0,0.15625,0,0.1682692319154739,0,0.1081730797886848,0,0.060096152126789,0,0.0240384619683027,0
328,0.0480769239366054,0,0.0240384619683027,0,-0.0240384619683027,0,-0.0360576920211315,0,0.0360576920211315,0,1e-07,0,0.0360576920211315,0,0.1201923042535781,0,0.1322115361690521,0,0.0961538478732109,0,0.060096152126789,0,0.0240384619683027,0
329,0.0480769239366054,0,0.0240384619683027,0,-0.0240384619683027,0,-0.0360576920211315,0,0.0360576920211315,0,1e-07,0,0.0360576920211315,0,0.1201923042535781,0,0.1322115361690521,0,0.0961538478732109,0,0.060096152126789,0,0.0240384619683027,0
330,0.0480769239366054,0,0.0360576920211315,0,-0.0120192309841513,0,-0.040865384042263,0,0.03125,0,0.0120192309841513,0,0.0240384619683027,0,0.0841346159577369,0,0.1081730797886848,0,0.072115384042263,0,0.0480769239366054,0,0.0240384619683027,0
331,0.0480769239366054,0,0.0360576920211315,0,-0.0120192309841513,0,-0.040865384042263,0,0.03125,0,0.0120192309841513,0,0.0240384619683027,0,0.0841346159577369,0,0.1081730797886848,0,0.072115384042263,0,0.0480769239366054,0,0.0240384619683027,0
332,0.0360576920211315,0,0.0360576920211315,0,1e-07,0,-0.0360576920211315,0,0.0192307699471712,0,0.0192307699471712,0,0.0120192309841513,0,0.072115384042263,0,0.0841346159577369,0,0.060096152126789,0,0.0480769239366054,0,0.0240384619683027,0
333,0.0360576920211315,0,0.0360576920211315,0,1e-07,0,-0.0360576920211315,0,0.0192307699471712,0,0.0192307699471712,0,0.0120192309841513,0,0.072115384042263,0,0.0841346159577369,0,0.060096152126789,0,0.0480769239366054,0,0.0240384619683027,0
334,0.0240384619683027,0,0.0360576920211315,0,0.0120192309841513,0,-0.0288461539894342,0,0.0072115384973585,0,0.0240384619683027,0,0.0120192309841513,0,0.0480769239366054,0,0.060096152126789,0,0.060096152126789,0,0.0480769239366054,0,0.0240384619683027,0
335,0.0240384619683027,0,0.0360576920211315,0,0.0120192309841513,0,-0.0288461539894342,0,0.0072115384973585,0,0.0240384619683027,0,0.0120192309841513,0,0.0480769239366054,0,0.060096152126789,0,0.060096152126789,0,0.0480769239366054,0,0.0240384619683027,0
336,0.0240384619683027,0,0.0240384619683027,0,1e-07,0,-0.0240384619683027,0,0.0120192309841513,0,0.0120192309841513,0,1e-07,0,0.0360576920211315,0,0.0480769239366054,0,0.0360576920211315,0,0.0240384619683027,0,0.0120192309841513,0
337,0.0240384619683027,0,0.0240384619683027,0,1e-07,0,-0.0240384619683027,0,0.0120192309841513,0,0.0120192309841513,0,1e-07,0,0.0360576920211315,0,0.0480769239366054,0,0.0360576920211315,0,0.0240384619683027,0,0.0120192309841513,0
338,0.0240384619683027,0,0.0120192309841513,0,-0.0120192309841513,0,-0.0168269239366054,0,0.0192307699471712,0,1e-07,0,-0.0120192309841513,0,0.0240384619683027,0,0.0360576920211315,0,0.0240384619683027,0,0.0240384619683027,0,0.0120192309841513,0
339,0.0240384619683027,0,0.0120192309841513,0,-0.0120192309841513,0,-0.0168269239366054,0,0.0192307699471712,0,1e-07,0,-0.0120192309841513,0,0.0240384619683027,0,0.0360576920211315,0,0.0240384619683027,0,0.0240384619683027,0,0.0120192309841513,0
340,0.0120192309841513,0,1e-07,0,-0.0120192309841513,0,-0.0048076924867928,0,0.0120192309841513,0,-0.0048076924867928,0,1e-07,0,0.0120192309841513,0,0.0240384619683027,0,0.0240384619683027,0,0.0120192309841513,0,0.0120192309841513,0
341,0.0120192309841513,0,1e-07,0,-0.0120192309841513,0,-0.0048076924867928,0,0.0120192309841513,0,-0.0048076924867928,0,1e-07,0,0.0120192309841513,0,0.0240384619683027,0,0.0240384619683027,0,0.0120192309841513,0,0.0120192309841513,0
342,0.0120192309841513,0,0.0120192309841513,0,1e-07,0,-0.0120192309841513,0,0.0072115384973585,0,0.0072115384973585,0,-0.0120192309841513,0,1e-07,0,0.0120192309841513,0,0.0120192309841513,0,0.0120192309841513,0,0.0120192309841513,0
343,0.0120192309841513,0,0.0120192309841513,0,1e-07,0,-0.0120192309841513,0,0.0072115384973585,0,0.0072115384973585,0,-0.0120192309841513,0,1e-07,0,0.0120192309841513,0,0.0120192309841513,0,0.0120192309841513,0,0.0120192309841513,0
344,0.0120192309841513,0,0.0240384619683027,0,0.0120192309841513,0,-0.0168269239366054,0,1e-07,0,0.0192307699471712,0,-0.0240384619683027,0,1e-07,0,1e-07,0,0.0120192309841513,0,0.0120192309841513,0,0.0120192309841513,0
345,0.0120192309841513,0,0.0240384619683027,0,0.0120192309841513,0,-0.0168269239366054,0,1e-07,0,0.0192307699471712,0,-0.0240384619683027,0,1e-07,0,1e-07,0,0.0120192309841513,0,0.0120192309841513,0,0.0120192309841513,0
346,0.0120192309841513,0,0.0120192309841513,0,1e-07,0,-0.0120192309841513,0,0.0072115384973585,0,0.0072115384973585,0,-0.0120192309841513,0,1e-07,0,1e-07,0,0.0120192309841513,0,0.0120192309841513,0,0.0120192309841513,0
347,0.0120192309841513,0,0.0120192309841513,0,1e-07,0,-0.0120192309841513,0,0.0072115384973585,0,0.0072115384973585,0,-0.0120192309841513,0,1e-07,0,1e-07,0,0.0120192309841513,0,0.0120192309841513,0,0.0120192309841513,0
348,0.0120192309841513,0,1e-07,0,-0.0120192309841513,0,-0.0048076924867928,0,0.0120192309841513,0,-0.0048076924867928,0,-0.0120192309841513,0,-0.0120192309841513,0,1e-07,0,1e-07,0,1e-07,0,1e-07,0
349,0.0120192309841513,0,1e-07,0,-0.0120192309841513,0,-0.0048076924867928,0,0.0120192309841513,0,-0.0048076924867928,0,-0.0120192309841513,0,-0.0120192309841513,0,1e-07,0,1e-07,0,1e-07,0,1e-07,0
350,1e-07,0,-0.0120192309841513,0,-0.0120192309841513,0,0.0048076924867928,0,0.0048076924867928,0,-0.0120192309841513,0,-0.0120192309841513,0,1e-07,0,1e-07,0,1e-07,0,0.0120192309841513,0,1e-07,0
351,1e-07,0,-0.0120192309841513,0,-0.0120192309841513,0,0.0048076924867928,0,0.0048076924867928,0,-0.0120192309841513,0,-0.0120192309841513,0,1e-07,0,1e-07,0,1e-07,0,0.0120192309841513,0,1e-07,0
352,1e-07,0,-0.0120192309841513,0,-0.0120192309841513,0,0.0048076924867928,0,0.0048076924867928,0,-0.0120192309841513,0,-0.0120192309841513,0,-0.0120192309841513,0,-0.0120192309841513,0,-0.0120192309841513,0,1e-07,0,1e-07,0
353,1e-07,0,-0.0120192309841513,0,-0.0120192309841513,0,0.0048076924867928,0,0.0048076924867928,0,-0.0120192309841513,0,-0.0120192309841513,0,-0.0120192309841513,0,-0.0120192309841513,0,-0.0120192309841513,0,1e-07,0,1e-07,0
354,1e-07,0,1e-07,0,1e-07,0,1e-07,0,1e-07,0,1e-07,0,-0.0120192309841513,0,-0.0120192309841513,0,-0.0120192309841513,0,1e-07,0,1e-07,0,0.0120192309841513,0
355,1e-07,0,1e-07,0,1e-07,0,1e-07,0,1e-07,0,1e-07,0,-0.0120192309841513,0,-0.0120192309841513,0,-0.0120192309841513,0,1e-07,0,1e-07,0,0.0120192309841513,0
356,1e-07,0,1e-07,0,1e-07,0,1e-07,0,1e-07,0,1e-07,0,-0.0120192309841513,0,-0.0120192309841513,0,-0.0120192309841513,0,1e-07,0,1e-07,0,0.0120192309841513,0
357,1e-07,0,1e-07,0,1e-07,0,1e-07,0,1e-07,0,1e-07,0,-0.0120192309841513,0,-0.0120192309841513,0,-0.0120192309841513,0,1e-07,0,1e-07,0,0.0120192309841513,0
358,1e-07,0,1e-07,0,1e-07,0,1e-07,0,1e-07,0,1e-07,0,-0.0120192309841513,0,-0.0120192309841513,0,-0.0120192309841513,0,1e-07,0,1e-07,0,0.0120192309841513,0
359,1e-07,0,1e-07,0,1e-07,0,1e-07,0,1e-07,0,1e-07,0,-0.0120192309841513,0,-0.0120192309841513,0,-0.0120192309841513,0,1e-07,0,1e-07,0,0.0120192309841513,0
360,1e-07,0,1e-07,0,1e-07,0,1e-07,0,1e-07,0,1e-07,0,-0.0120192309841513,0,-0.0120192309841513,0,-0.0120192309841513,0,-0.0120192309841513,0,1e-07,0,1e-07,0
361,1e-07,0,1e-07,0,1e-07,0,1e-07,0,1e-07,0,1e-07,0,-0.0120192309841513,0,-0.0120192309841513,0,-0.0120192309841513,0,-0.0120192309841513,0,1e-07,0,1e-07,0
362,1e-07,0,1e-07,0,1e-07,0,1e-07,0,1e-07,0,1e-07,0,-0.0120192309841513,0,-0.0120192309841513,0,-0.0120192309841513,0,-0.0120192309841513,0,1e-07,0,1e-07,0
363,1e-07,0,1e-07,0,1e-07,0,1e-07,0,1e-07,0,1e-07,0,-0.0120192309841513,0,-0.0120192309841513,0,-0.0120192309841513,0,-0.0120192309841513,0,1e-07,0,1e-07,0
364,1e-07,0,1e-07,0,1e-07,0,1e-07,0,1e-07,0,1e-07,0,-0.0120192309841513,0,-0.0240384619683027,0,-0.0240384619683027,0,-0.0120192309841513,0,-0.0120192309841513,0,1e-07,0
365,1e-07,0,1e-07,0,1e-07,0,1e-07,0,1e-07,0,1e-07,0,-0.0120192309841513,0,-0.0240384619683027,0,-0.0240384619683027,0,-0.0120192309841513,0,-0.0120192309841513,0,1e-07,0
366,1e-07,0,1e-07,0,1e-07,0,1e-07,0,1e-07,0,1e-07,0,-0.0120192309841513,0,-0.0120192309841513,0,-0.0120192309841513,0,-0.0120192309841513,0,1e-07,0,1e-07,0
367,1e-07,0,1e-07,0,1e-07,0,1e-07,0,1e-07,0,1e-07,0,-0.0120192309841513,0,-0.0120192309841513,0,-0.0120192309841513,0,-0.0120192309841513,0,1e-07,0,1e-07,0
368,1e-07,0,-0.0120192309841513,0,-0.0120192309841513,0,0.0048076924867928,0,0.0048076924867928,0,-0.0120192309841513,0,-0.0120192309841513,0,-0.0120192309841513,0,-0.0120192309841513,0,-0.0120192309841513,0,1e-07,0,1e-07,0
369,1e-07,0,-0.0120192309841513,0,-0.0120192309841513,0,0.0048076924867928,0,0.0048076924867928,0,-0.0120192309841513,0,-0.0120192309841513,0,-0.0120192309841513,0,-0.0120192309841513,0,-0.0120192309841513,0,1e-07,0,1e-07,0
370,1e-07,0,-0.0120192309841513,0,-0.0120192309841513,0,0.0048076924867928,0,0.0048076924867928,0,-0.0120192309841513,0,-0.0120192309841513,0,-0.0120192309841513,0,-0.0120192309841513,0,-0.0120192309841513,0,1e-07,0,1e-07,0
371,1e-07,0,-0.0120192309841513,0,-0.0120192309841513,0,0.0048076924867928,0,0.0048076924867928,0,-0.0120192309841513,0,-0.0120192309841513,0,-0.0120192309841513,0,-0.0120192309841513,0,-0.0120192309841513,0,1e-07,0,1e-07,0
372,1e-07,0,-0.0120192309841513,0,-0.0120192309841513,0,0.0048076924867928,0,0.0048076924867928,0,-0.0120192309841513,0,-0.0120192309841513,0,-0.0120192309841513,0,-0.0240384619683027,0,-0.0120192309841513,0,1e-07,0,1e-07,0
373,1e-07,0,-0.0120192309841513,0,-0.0120192309841513,0,0.0048076924867928,0,0.0048076924867928,0,-0.0120192309841513,0,-0.0120192309841513,0,-0.0120192309841513,0,-0.0240384619683027,0,-0.0120192309841513,0,1e-07,0,1e-07,0
374,1e-07,0,-0.0120192309841513,0,-0.0120192309841513,0,0.0048076924867928,0,0.0048076924867928,0,-0.0120192309841513,0,-0.0120192309841513,0,-0.0120192309841513,0,-0.0120192309841513,0,-0.0120192309841513,0,1e-07,0,1e-07,0
375,1e-07,0,-0.0120192309841513,0,-0.0120192309841513,0,0.0048076924867928,0,0.0048076924867928,0,-0.0120192309841513,0,-0.0120192309841513,0,-0.0120192309841513,0,-0.0120192309841513,0,-0.0120192309841513,0,1e-07,0,1e-07,0
376,1e-07,0,-0.0120192309841513,0,-0.0120192309841513,0,0.0048076924867928,0,0.0048076924867928,0,-0.0120192309841513,0,-0.0120192309841513,0,-0.0120192309841513,0,-0.0240384619683027,0,-0.0120192309841513,0,1e-07,0,1e-07,0
377,1e-07,0,-0.0120192309841513,0,-0.0120192309841513,0,0.0048076924867928,0,0.0048076924867928,0,-0.0120192309841513,0,-0.0120192309841513,0,-0.0120192309841513,0,-0.0240384619683027,0,-0.0120192309841513,0,1e-07,0,1e-07,0
378,1e-07,0,-0.0120192309841513,0,-0.0120192309841513,0,0.0048076924867928,0,0.0048076924867928,0,-0.0120192309841513,0,1e-07,0,-0.0120192309841513,0,-0.0240384619683027,0,-0.0120192309841513,0,1e-07,0,1e-07,0
379,1e-07,0,-0.0120192309841513,0,-0.0120192309841513,0,0.0048076924867928,0,0.0048076924867928,0,-0.0120192309841513,0,1e-07,0,-0.0120192309841513,0,-0.0240384619683027,0,-0.0120192309841513,0,1e-07,0,1e-07,0
380,1e-07,0,1e-07,0,1e-07,0,1e-07,0,1e-07,0,1e-07,0,-0.0120192309841513,0,-0.0120192309841513,0,-0.0240384619683027,0,-0.0120192309841513,0,1e-07,0,1e-07,0
381,1e-07,0,1e-07,0,1e-07,0,1e-07,0,1e-07,0,1e-07,0,-0.0120192309841513,0,-0.0120192309841513,0,-0.0240384619683027,0,-0.0120192309841513,0,1e-07,0,1e-07,0
382,-0.0120192309841513,0,-0.0120192309841513,0,1e-07,0,0.0120192309841513,0,-0.0072115384973585,0,-0.0072115384973585,0,-0.0120192309841513,0,-0.0120192309841513,0,-0.0240384619683027,0,-0.0120192309841513,0,1e-07,0,0.0120192309841513,0
383,-0.0120192309841513,0,-0.0120192309841513,0,1e-07,0,0.0120192309841513,0,-0.0072115384973585,0,-0.0072115384973585,0,-0.0120192309841513,0,-0.0120192309841513,0,-0.0240384619683027,0,-0.0120192309841513,0,1e-07,0,0.0120192309841513,0
384,1e-07,0,-0.0120192309841513,0,-0.0120192309841513,0,0.0048076924867928,0,0.0048076924867928,0,-0.0120192309841513,0,-0.0120192309841513,0,-0.0120192309841513,0,-0.0240384619683027,0,-0.0120192309841513,0,-0.0120192309841513,0,1e-07,0
385,1e-07,0,-0.0120192309841513,0,-0.0120192309841513,0,0.0048076924867928,0,0.0048076924867928,0,-0.0120192309841513,0,-0.0120192309841513,0,-0.0120192309841513,0,-0.0240384619683027,0,-0.0120192309841513,0,-0.0120192309841513,0,1e-07,0
386,1e-07,0,-0.0120192309841513,0,-0.0120192309841513,0,0.0048076924867928,0,0.0048076924867928,0,-0.0120192309841513,0,1e-07,0,1e-07,0,-0.0120192309841513,0,-0.0120192309841513,0,1e-07,0,1e-07,0
387,1e-07,0,-0.0120192309841513,0,-0.0120192309841513,0,0.0048076924867928,0,0.0048076924867928,0,-0.0120192309841513,0,1e-07,0,1e-07,0,-0.0120192309841513,0,-0.0120192309841513,0,1e-07,0,1e-07,0
388,1e-07,0,-0.0240384619683027,0,-0.0240384619683027,0,0.0120192309841513,0,0.0120192309841513,0,-0.0240384619683027,0,1e-07,0,1e-07,0,-0.0120192309841513,0,-0.0120192309841513,0,-0.0120192309841513,0,1e-07,0
389,1e-07,0,-0.0240384619683027,0,-0.0240384619683027,0,0.0120192309841513,0,0.0120192309841513,0,-0.0240384619683027,0,1e-07,0,1e-07,0,-0.0120192309841513,0,-0.0120192309841513,0,-0.0120192309841513,0,1e-07,0
390,1e-07,0,-0.0120192309841513,0,-0.0120192309841513,0,0.0048076924867928,0,0.0048076924867928,0,-0.0120192309841513,0,1e-07,0,1e-07,0,-0.0120192309841513,0,-0.0120192309841513,0,-0.0120192309841513,0,1e-07,0
391,1e-07,0,-0.0120192309841513,0,-0.0120192309841513,0,0.0048076924867928,0,0.0048076924867928,0,-0.0120192309841513,0,1e-07,0,1e-07,0,-0.0120192309841513,0,-0.0120192309841513,0,-0.0120192309841513,0,1e-07,0
392,1e-07,0,-0.0120192309841513,0,-0.0120192309841513,0,0.0048076924867928,0,0.0048076924867928,0,-0.0120192309841513,0,1e-07,0,1e-07,0,-0.0120192309841513,0,-0.0120192309841513,0,1e-07,0,1e-07,0
393,1e-07,0,-0.0120192309841513,0,-0.0120192309841513,0,0.0048076924867928,0,0.0048076924867928,0,-0.0120192309841513,0,1e-07,0,1e-07,0,-0.0120192309841513,0,-0.0120192309841513,0,1e-07,0,1e-07,0
394,1e-07,0,-0.0120192309841513,0,-0.0120192309841513,0,0.0048076924867928,0,0.0048076924867928,0,-0.0120192309841513,0,1e-07,0,1e-07,0,-0.0120192309841513,0,-0.0120192309841513,0,1e-07,0,1e-07,0
395,1e-07,0,-0.0120192309841513,0,-0.0120192309841513,0,0.0048076924867928,0,0.0048076924867928,0,-0.0120192309841513,0,1e-07,0,1e-07,0,-0.0120192309841513,0,-0.0120192309841513,0,1e-07,0,1e-07,0
396,1e-07,0,-0.0120192309841513,0,-0.0120192309841513,0,0.0048076924867928,0,0.0048076924867928,0,-0.0120192309841513,0,1e-07,0,1e-07,0,-0.0120192309841513,0,-0.0120192309841513,0,1e-07,0,1e-07,0
397,1e-07,0,-0.0120192309841513,0,-0.0120192309841513,0,0.0048076924867928,0,0.0048076924867928,0,-0.0120192309841513,0,1e-07,0,1e-07,0,-0.0120192309841513,0,-0.0120192309841513,0,1e-07,0,1e-07,0
398,1e-07,0,-0.0120192309841513,0,-0.0120192309841513,0,0.0048076924867928,0,0.0048076924867928,0,-0.0120192309841513,0,1e-07,0,1e-07,0,-0.0120192309841513,0,1e-07,0,1e-07,0,1e-07,0
399,1e-07,0,-0.0120192309841513,0,-0.0120192309841513,0,0.0048076924867928,0,0.0048076924867928,0,-0.0120192309841513,0,1e-07,0,1e-07,0,-0.0120192309841513,0,1e-07,0,1e-07,0,1e-07,0
400,1e-07,0,-0.0120192309841513,0,-0.0120192309841513,0,0.0048076924867928,0,0.0048076924867928,0,-0.0120192309841513,0,1e-07,0,0.0120192309841513,0,1e-07,0,1e-07,0,1e-07,0,1e-07,0
401,1e-07,0,-0.0120192309841513,0,-0.0120192309841513,0,0.0048076924867928,0,0.0048076924867928,0,-0.0120192309841513,0,1e-07,0,0.0120192309841513,0,1e-07,0,1e-07,0,1e-07,0,1e-07,0
402,1e-07,0,1e-07,0,1e-07,0,1e-07,0,1e-07,0,1e-07,0,1e-07,0,0.0120192309841513,0,1e-07,0,1e-07,0,1e-07,0,1e-07,0
403,1e-07,0,1e-07,0,1e-07,0,1e-07,0,1e-07,0,1e-07,0,1e-07,0,0.0120192309841513,0,1e-07,0,1e-07,0,1e-07,0,1e-07,0
404,1e-07,0,1e-07,0,1e-07,0,1e-07,0,1e-07,0,1e-07,0,1e-07,0,0.0120192309841513,0,1e-07,0,1e-07,0,1e-07,0,1e-07,0
405,1e-07,0,1e-07,0,1e-07,0,1e-07,0,1e-07,0,1e-07,0,1e-07,0,0.0120192309841513,0,1e-07,0,1e-07,0,1e-07,0,1e-07,0
406,1e-07,0,-0.0120192309841513,0,-0.0120192309841513,0,0.0048076924867928,0,0.0048076924867928,0,-0.0120192309841513,0,1e-07,0,0.0120192309841513,0,1e-07,0,1e-07,0,-0.0120192309841513,0,-0.0120192309841513,0
407,1e-07,0,-0.0120192309841513,0,-0.0120192309841513,0,0.0048076924867928,0,0.0048076924867928,0,-0.0120192309841513,0,1e-07,0,0.0120192309841513,0,1e-07,0,1e-07,0,-0.0120192309841513,0,-0.0120192309841513,0
408,1e-07,0,-0.0120192309841513,0,-0.0120192309841513,0,0.0048076924867928,0,0.0048076924867928,0,-0.0120192309841513,0,1e-07,0,0.0120192309841513,0,1e-07,0,1e-07,0,1e-07,0,1e-07,0
409,1e-07,0,-0.0120192309841513,0,-0.0120192309841513,0,0.0048076924867928,0,0.0048076924867928,0,-0.0120192309841513,0,1e-07,0,0.0120192309841513,0,1e-07,0,1e-07,0,1e-07,0,1e-07,0
410,1e-07,0,-0.0120192309841513,0,-0.0120192309841513,0,0.0048076924867928,0,0.0048076924867928,0,-0.0120192309841513,0,0.0120192309841513,0,0.0120192309841513,0,1e-07,0,1e-07,0,1e-07,0,1e-07,0
411,1e-07,0,-0.0120192309841513,0,-0.0120192309841513,0,0.0048076924867928,0,0.0048076924867928,0,-0.0120192309841513,0,0.0120192309841513,0,0.0120192309841513,0,1e-07,0,1e-07,0,1e-07,0,1e-07,0
412,1e-07,0,1e-07,0,1e-07,0,1e-07,0,1e-07,0,1e-07,0,1e-07,0,0.0120192309841513,0,1e-07,0,1e-07,0,0.0120192309841513,0,0.0120192309841513,0
413,1e-07,0,1e-07,0,1e-07,0,1e-07,0,1e-07,0,1e-07,0,1e-07,0,0.0120192309841513,0,1e-07,0,1e-07,0,0.0120192309841513,0,0.0120192309841513,0
414,1e-07,0,1e-07,0,1e-07,0,1e-07,0,1e-07,0,1e-07,0,1e-07,0,0.0120192309841513,0,1e-07,0,1e-07,0,1e-07,0,1e-07,0
415,1e-07,0,1e-07,0,1e-07,0,1e-07,0,1e-07,0,1e-07,0,1e-07,0,0.0120192309841513,0,1e-07,0,1e-07,0,1e-07,0,1e-07,0
416,0.0120192309841513,0,1e-07,0,-0.0120192309841513,0,-0.0048076924867928,0,0.0120192309841513,0,-0.0048076924867928,0,1e-07,0,0.0120192309841513,0,1e-07,0,1e-07,0,1e-07,0,1e-07,0
417,0.0120192309841513,0,1e-07,0,-0.0120192309841513,0,-0.0048076924867928,0,0.0120192309841513,0,-0.0048076924867928,0,1e-07,0,0.0120192309841513,0,1e-07,0,1e-07,0,1e-07,0,1e-07,0
418,1e-07,0,-0.0120192309841513,0,-0.0120192309841513,0,0.0048076924867928,0,0.0048076924867928,0,-0.0120192309841513,0,1e-07,0,0.0120192309841513,0,0.0120192309841513,0,0.0120192309841513,0,0.0120192309841513,0,1e-07,0
419,1e-07,0,-0.0120192309841513,0,-0.0120192309841513,0,0.0048076924867928,0,0.0048076924867928,0,-0.0120192309841513,0,1e-07,0,0.0120192309841513,0,0.0120192309841513,0,0.0120192309841513,0,0.0120192309841513,0,1e-07,0
420,1e-07,0,1e-07,0,1e-07,0,1e-07,0,1e-07,0,1e-07,0,1e-07,0,0.0120192309841513,0,0.0120192309841513,0,0.0120192309841513,0,0.0120192309841513,0,1e-07,0
421,1e-07,0,1e-07,0,1e-07,0,1e-07,0,1e-07,0,1e-07,0,1e-07,0,0.0120192309841513,0,0.0120192309841513,0,0.0120192309841513,0,0.0120192309841513,0,1e-07,0
422,1e-07,0,-0.0120192309841513,0,-0.0120192309841513,0,0.0048076924867928,0,0.0048076924867928,0,-0.0120192309841513,0,1e-07,0,1e-07,0,1e-07,0,1e-07,0,1e-07,0,1e-07,0
423,1e-07,0,-0.0120192309841513,0,-0.0120192309841513,0,0.0048076924867928,0,0.0048076924867928,0,-0.0120192309841513,0,1e-07,0,1e-07,0,1e-07,0,1e-07,0,1e-07,0,1e-07,0
424,1e-07,0,1e-07,0,1e-07,0,1e-07,0,1e-07,0,1e-07,0,-0.0120192309841513,0,1e-07,0,1e-07,0,1e-07,0,0.0120192309841513,0,1e-07,0
425,1e-07,0,1e-07,0,1e-07,0,1e-07,0,1e-07,0,1e-07,0,-0.0120192309841513,0,1e-07,0,1e-07,0,1e-07,0,0.0120192309841513,0,1e-07,0
426,1e-07,0,1e-07,0,1e-07,0,1e-07,0,1e-07,0,1e-07,0,1e-07,0,1e-07,0,1e-07,0,1e-07,0,1e-07,0,1e-07,0
427,1e-07,0,1e-07,0,1e-07,0,1e-07,0,1e-07,0,1e-07,0,1e-07,0,1e-07,0,1e-07,0,1e-07,0,1e-07,0,1e-07,0
428,1e-07,0,1e-07,0,1e-07,0,1e-07,0,1e-07,0,1e-07,0,-0.0120192309841513,0,1e-07,0,1e-07,0,1e-07,0,1e-07,0,1e-07,0
429,1e-07,0,1e-07,0,1e-07,0,1e-07,0,1e-07,0,1e-07,0,-0.0120192309841513,0,1e-07,0,1e-07,0,1e-07,0,1e-07,0,1e-07,0
430,1e-07,0,1e-07,0,1e-07,0,1e-07,0,1e-07,0,1e-07,0,-0.0120192309841513,0,1e-07,0,1e-07,0,1e-07,0,1e-07,0,1e-07,0
431,1e-07,0,1e-07,0,1e-07,0,1e-07,0,1e-07,0,1e-07,0,-0.0120192309841513,0,1e-07,0,1e-07,0,1e-07,0,1e-07,0,1e-07,0
432,1e-07,0,1e-07,0,1e-07,0,1e-07,0,1e-07,0,1e-07,0,-0.0120192309841513,0,1e-07,0,1e-07,0,1e-07,0,1e-07,0,1e-07,0
433,1e-07,0,1e-07,0,1e-07,0,1e-07,0,1e-07,0,1e-07,0,-0.0120192309841513,0,1e-07,0,1e-07,0,1e-07,0,1e-07,0,1e-07,0
434,1e-07,0,1e-07,0,1e-07,0,1e-07,0,1e-07,0,1e-07,0,-0.0120192309841513,0,1e-07,0,1e-07,0,1e-07,0,1e-07,0,1e-07,0
435,1e-07,0,1e-07,0,1e-07,0,1e-07,0,1e-07,0,1e-07,0,-0.0120192309841513,0,1e-07,0,1e-07,0,1e-07,0,1e-07,0,1e-07,0
436,1e-07,0,0.0120192309841513,0,0.0120192309841513,0,-0.0048076924867928,0,-0.0048076924867928,0,0.0120192309841513,0,-0.0120192309841513,0,-0.0120192309841513,0,1e-07,0,1e-07,0,0.0120192309841513,0,0.0120192309841513,0
437,1e-07,0,0.0120192309841513,0,0.0120192309841513,0,-0.0048076924867928,0,-0.0048076924867928,0,0.0120192309841513,0,-0.0120192309841513,0,-0.0120192309841513,0,1e-07,0,1e-07,0,0.0120192309841513,0,0.0120192309841513,0
438,1e-07,0,0.0120192309841513,0,0.0120192309841513,0,-0.0048076924867928,0,-0.0048076924867928,0,0.0120192309841513,0,-0.0240384619683027,0,-0.0120192309841513,0,-0.0120192309841513,0,-0.0120192309841513,0,1e-07,0,0.0120192309841513,0
439,1e-07,0,0.0120192309841513,0,0.0120192309841513,0,-0.0048076924867928,0,-0.0048076924867928,0,0.0120192309841513,0,-0.0240384619683027,0,-0.0120192309841513,0,-0.0120192309841513,0,-0.0120192309841513,0,1e-07,0,0.0120192309841513,0
440,1e-07,0,1e-07,0,1e-07,0,1e-07,0,1e-07,0,1e-07,0,-0.0120192309841513,0,-0.0120192309841513,0,-0.0120192309841513,0,1e-07,0,1e-07,0,1e-07,0
441,1e-07,0,1e-07,0,1e-07,0,1e-07,0,1e-07,0,1e-07,0,-0.0120192309841513,0,-0.0120192309841513,0,-0.0120192309841513,0,1e-07,0,1e-07,0,1e-07,0
442,1e-07,0,1e-07,0,1e-07,0,1e-07,0,1e-07,0,1e-07,0,-0.0240384619683027,0,-0.0120192309841513,0,-0.0120192309841513,0,-0.0120192309841513,0,1e-07,0,1e-07,0
443,1e-07,0,1e-07,0,1e-07,0,1e-07,0,1e-07,0,1e-07,0,-0.0240384619683027,0,-0.0120192309841513,0,-0.0120192309841513,0,-0.0120192309841513,0,1e-07,0,1e-07,0
444,1e-07,0,1e-07,0,1e-07,0,1e-07,0,1e-07,0,1e-07,0,-0.0240384619683027,0,-0.0240384619683027,0,-0.0120192309841513,0,-0.0120192309841513,0,1e-07,0,1e-07,0
445,1e-07,0,1e-07,0,1e-07,0,1e-07,0,1e-07,0,1e-07,0,-0.0240384619683027,0,-0.0240384619683027,0,-0.0120192309841513,0,-0.0120192309841513,0,1e-07,0,1e-07,0
446,1e-07,0,1e-07,0,1e-07,0,1e-07,0,1e-07,0,1e-07,0,-0.0240384619683027,0,-0.0240384619683027,0,-0.0240384619683027,0,-0.0120192309841513,0,-0.0120192309841513,0,1e-07,0
447,1e-07,0,1e-07,0,1e-07,0,1e-07,0,1e-07,0,1e-07,0,-0.0240384619683027,0,-0.0240384619683027,0,-0.0240384619683027,0,-0.0120192309841513,0,-0.0120192309841513,0,1e-07,0
448,1e-07,0,0.0120192309841513,0,0.0120192309841513,0,-0.0048076924867928,0,-0.0048076924867928,0,0.0120192309841513,0,-0.0240384619683027,0,-0.0240384619683027,0,-0.0240384619683027,0,-0.0120192309841513,0,-0.0120192309841513,0,1e-07,0
449,1e-07,0,0.0120192309841513,0,0.0120192309841513,0,-0.0048076924867928,0,-0.0048076924867928,0,0.0120192309841513,0,-0.0240384619683027,0,-0.0240384619683027,0,-0.0240384619683027,0,-0.0120192309841513,0,-0.0120192309841513,0,1e-07,0
450,1e-07,0,1e-07,0,1e-07,0,1e-07,0,1e-07,0,1e-07,0,-0.0240384619683027,0,-0.0240384619683027,0,-0.0240384619683027,0,-0.0120192309841513,0,-0.0120192309841513,0,1e-07,0
451,1e-07,0,1e-07,0,1e-07,0,1e-07,0,1e-07,0,1e-07,0,-0.0240384619683027,0,-0.0240384619683027,0,-0.0240384619683027,0,-0.0120192309841513,0,-0.0120192309841513,0,1e-07,0
452,1e-07,0,1e-07,0,1e-07,0,1e-07,0,1e-07,0,1e-07,0,-0.0240384619683027,0,-0.0240384619683027,0,-0.0240384619683027,0,-0.0120192309841513,0,-0.0120192309841513,0,1e-07,0
453,1e-07,0,1e-07,0,1e-07,0,1e-07,0,1e-07,0,1e-07,0,-0.0240384619683027,0,-0.0240384619683027,0,-0.0240384619683027,0,-0.0120192309841513,0,-0.0120192309841513,0,1e-07,0
454,1e-07,0,1e-07,0,1e-07,0,1e-07,0,1e-07,0,1e-07,0,-0.0240384619683027,0,-0.0240384619683027,0,-0.0240384619683027,0,-0.0240384619683027,0,-0.0120192309841513,0,1e-07,0
455,1e-07,0,1e-07,0,1e-07,0,1e-07,0,1e-07,0,1e-07,0,-0.0240384619683027,0,-0.0240384619683027,0,-0.0240384619683027,0,-0.0240384619683027,0,-0.0120192309841513,0,1e-07,0
456,1e-07,0,1e-07,0,1e-07,0,1e-07,0,1e-07,0,1e-07,0,-0.0240384619683027,0,-0.0360576920211315,0,-0.0360576920211315,0,-0.0240384619683027,0,-0.0120192309841513,0,-0.0120192309841513,0
457,1e-07,0,1e-07,0,1e-07,0,1e-07,0,1e-07,0,1e-07,0,-0.0240384619683027,0,-0.0360576920211315,0,-0.0360576920211315,0,-0.0240384619683027,0,-0.0120192309841513,0,-0.0120192309841513,0
458,1e-07,0,0.0120192309841513,0,0.0120192309841513,0,-0.0048076924867928,0,-0.0048076924867928,0,0.0120192309841513,0,-0.0240384619683027,0,-0.0360576920211315,0,-0.0360576920211315,0,-0.0240384619683027,0,-0.0120192309841513,0,1e-07,0
459,1e-07,0,0.0120192309841513,0,0.0120192309841513,0,-0.0048076924867928,0,-0.0048076924867928,0,0.0120192309841513,0,-0.0240384619683027,0,-0.0360576920211315,0,-0.0360576920211315,0,-0.0240384619683027,0,-0.0120192309841513,0,1e-07,0
460,1e-07,0,0.0120192309841513,0,0.0120192309841513,0,-0.0048076924867928,0,-0.0048076924867928,0,0.0120192309841513,0,-0.0360576920211315,0,-0.0360576920211315,0,-0.0360576920211315,0,-0.0240384619683027,0,-0.0120192309841513,0,1e-07,0
461,1e-07,0,0.0120192309841513,0,0.0120192309841513,0,-0.0048076924867928,0,-0.0048076924867928,0,0.0120192309841513,0,-0.0360576920211315,0,-0.0360576920211315,0,-0.0360576920211315,0,-0.0240384619683027,0,-0.0120192309841513,0,1e-07,0
462,1e-07,0,0.0120192309841513,0,0.0120192309841513,0,-0.0048076924867928,0,-0.0048076924867928,0,0.0120192309841513,0,-0.0240384619683027,0,-0.0360576920211315,0,-0.0360576920211315,0,-0.0240384619683027,0,-0.0120192309841513,0,1e-07,0
463,1e-07,0,0.0120192309841513,0,0.0120192309841513,0,-0.0048076924867928,0,-0.0048076924867928,0,0.0120192309841513,0,-0.0240384619683027,0,-0.0360576920211315,0,-0.0360576920211315,0,-0.0240384619683027,0,-0.0120192309841513,0,1e-07,0
464,1e-07,0,0.0240384619683027,0,0.0240384619683027,0,-0.0120192309841513,0,-0.0120192309841513,0,0.0240384619683027,0,-0.0240384619683027,0,-0.0240384619683027,0,-0.0240384619683027,0,-0.0120192309841513,0,-0.0120192309841513,0,1e-07,0
465,1e-07,0,0.0240384619683027,0,0.0240384619683027,0,-0.0120192309841513,0,-0.0120192309841513,0,0.0240384619683027,0,-0.0240384619683027,0,-0.0240384619683027,0,-0.0240384619683027,0,-0.0120192309841513,0,-0.0120192309841513,0,1e-07,0
466,1e-07,0,0.0360576920211315,0,0.0360576920211315,0,-0.0168269239366054,0,-0.0168269239366054,0,0.0360576920211315,0,-0.0120192309841513,0,-0.0240384619683027,0,-0.0240384619683027,0,-0.0120192309841513,0,1e-07,0,0.0120192309841513,0
467,1e-07,0,0.0360576920211315,0,0.0360576920211315,0,-0.0168269239366054,0,-0.0168269239366054,0,0.0360576920211315,0,-0.0120192309841513,0,-0.0240384619683027,0,-0.0240384619683027,0,-0.0120192309841513,0,1e-07,0,0.0120192309841513,0
468,1e-07,0,0.0240384619683027,0,0.0240384619683027,0,-0.0120192309841513,0,-0.0120192309841513,0,0.0240384619683027,0,-0.0120192309841513,0,-0.0240384619683027,0,-0.0240384619683027,0,1e-07,0,1e-07,0,0.0120192309841513,0
469,1e-07,0,0.0240384619683027,0,0.0240384619683027,0,-0.0120192309841513,0,-0.0120192309841513,0,0.0240384619683027,0,-0.0120192309841513,0,-0.0240384619683027,0,-0.0240384619683027,0,1e-07,0,1e-07,0,0.0120192309841513,0
470,1e-07,0,0.0360576920211315,0,0.0360576920211315,0,-0.0168269239366054,0,-0.0168269239366054,0,0.0360576920211315,0,-0.0120192309841513,0,-0.0240384619683027,0,-0.0120192309841513,0,1e-07,0,0.0120192309841513,0,0.0240384619683027,0
471,1e-07,0,0.0360576920211315,0,0.0360576920211315,0,-0.0168269239366054,0,-0.0168269239366054,0,0.0360576920211315,0,-0.0120192309841513,0,-0.0240384619683027,0,-0.0120192309841513,0,1e-07,0,0.0120192309841513,0,0.0240384619683027,0
472,0.0120192309841513,0,0.0480769239366054,0,0.0360576920211315,0,-0.0288461539894342,0,-0.0120192309841513,0,0.0432692319154739,0,1e-07,0,-0.0120192309841513,0,-0.0120192309841513,0,1e-07,0,0.0120192309841513,0,0.0240384619683027,0
473,0.0120192309841513,0,0.0480769239366054,0,0.0360576920211315,0,-0.0288461539894342,0,-0.0120192309841513,0,0.0432692319154739,0,1e-07,0,-0.0120192309841513,0,-0.0120192309841513,0,1e-07,0,0.0120192309841513,0,0.0240384619683027,0
474,0.0120192309841513,0,0.060096152126789,0,0.0480769239366054,0,-0.0360576920211315,0,-0.0168269239366054,0,0.0552884601056575,0,-0.0120192309841513,0,-0.0240384619683027,0,-0.0120192309841513,0,1e-07,0,0.0120192309841513,0,0.0240384619683027,0
475,0.0120192309841513,0,0.060096152126789,0,0.0480769239366054,0,-0.0360576920211315,0,-0.0168269239366054,0,0.0552884601056575,0,-0.0120192309841513,0,-0.0240384619683027,0,-0.0120192309841513,0,1e-07,0,0.0120192309841513,0,0.0240384619683027,0
476,1e-07,0,0.0480769239366054,0,0.0480769239366054,0,-0.0240384619683027,0,-0.0240384619683027,0,0.0480769239366054,0,1e-07,0,-0.0120192309841513,0,-0.0120192309841513,0,1e-07,0,0.0120192309841513,0,0.0240384619683027,0
477,1e-07,0,0.0480769239366054,0,0.0480769239366054,0,-0.0240384619683027,0,-0.0240384619683027,0,0.0480769239366054,0,1e-07,0,-0.0120192309841513,0,-0.0120192309841513,0,1e-07,0,0.0120192309841513,0,0.0240384619683027,0
478,1e-07,0,0.060096152126789,0,0.060096152126789,0,-0.0288461539894342,0,-0.0288461539894342,0,0.060096152126789,0,1e-07,0,-0.0120192309841513,0,-0.0120192309841513,0,1e-07,0,0.0120192309841513,0,0.0240384619683027,0
479,1e-07,0,0.060096152126789,0,0.060096152126789,0,-0.0288461539894342,0,-0.0288461539894342,0,0.060096152126789,0,1e-07,0,-0.0120192309841513,0,-0.0120192309841513,0,1e-07,0,0.0120192309841513,0,0.0240384619683027,0
480,0.0120192309841513,0,0.0841346159577369,0,0.072115384042263,0,-0.0480769239366054,0,-0.0288461539894342,0,0.0793269202113151,0,1e-07,0,-0.0120192309841513,0,-0.0120192309841513,0,1e-07,0,0.0120192309841513,0,0.0360576920211315,0
481,0.0120192309841513,0,0.0841346159577369,0,0.072115384042263,0,-0.0480769239366054,0,-0.0288461539894342,0,0.0793269202113151,0,1e-07,0,-0.0120192309841513,0,-0.0120192309841513,0,1e-07,0,0.0120192309841513,0,0.0360576920211315,0
482,0.0240384619683027,0,0.1201923042535781,0,0.0961538478732109,0,-0.072115384042263,0,-0.0360576920211315,0,0.1081730797886848,0,1e-07,0,-0.0120192309841513,0,1e-07,0,0.0240384619683027,0,0.0360576920211315,0,0.0480769239366054,0
483,0.0240384619683027,0,0.1201923042535781,0,0.0961538478732109,0,-0.072115384042263,0,-0.0360576920211315,0,0.1081730797886848,0,1e-07,0,-0.0120192309841513,0,1e-07,0,0.0240384619683027,0,0.0360576920211315,0,0.0480769239366054,0
484,0.0360576920211315,0,0.144230768084526,0,0.1081730797886848,0,-0.0889423042535781,0,-0.0360576920211315,0,0.1274038404226303,0,-0.0120192309841513,0,1e-07,0,0.0240384619683027,0,0.0360576920211315,0,0.0480769239366054,0,0.072115384042263,0
485,0.0360576920211315,0,0.144230768084526,0,0.1081730797886848,0,-0.0889423042535781,0,-0.0360576920211315,0,0.1274038404226303,0,-0.0120192309841513,0,1e-07,0,0.0240384619683027,0,0.0360576920211315,0,0.0480769239366054,0,0.072115384042263,0
486,0.0480769239366054,0,0.1923076957464218,0,0.144230768084526,0,-0.1201923042535781,0,-0.0480769239366054,0,0.1682692319154739,0,-0.0240384619683027,0,-0.0120192309841513,0,0.0120192309841513,0,0.0480769239366054,0,0.060096152126789,0,0.0961538478732109,0
487,0.0480769239366054,0,0.1923076957464218,0,0.144230768084526,0,-0.1201923042535781,0,-0.0480769239366054,0,0.1682692319154739,0,-0.0240384619683027,0,-0.0120192309841513,0,0.0120192309841513,0,0.0480769239366054,0,0.060096152126789,0,0.0961538478732109,0
488,0.0480769239366054,0,0.2043269276618957,0,0.15625,0,-0.125,0,-0.0528846159577369,0,0.1802884638309478,0,-0.0360576920211315,0,-0.0240384619683027,0,0.0120192309841513,0,0.0480769239366054,0,0.072115384042263,0,0.0961538478732109,0
489,0.0480769239366054,0,0.2043269276618957,0,0.15625,0,-0.125,0,-0.0528846159577369,0,0.1802884638309478,0,-0.0360576920211315,0,-0.0240384619683027,0,0.0120192309841513,0,0.0480769239366054,0,0.072115384042263,0,0.0961538478732109,0
490,0.0480769239366054,0,0.1923076957464218,0,0.144230768084526,0,-0.1201923042535781,0,-0.0480769239366054,0,0.1682692319154739,0,-0.0480769239366054,0,-0.0360576920211315,0,1e-07,0,0.0360576920211315,0,0.060096152126789,0,0.0841346159577369,0
491,0.0480769239366054,0,0.1923076957464218,0,0.144230768084526,0,-0.1201923042535781,0,-0.0480769239366054,0,0.1682692319154739,0,-0.0480769239366054,0,-0.0360576920211315,0,1e-07,0,0.0360576920211315,0,0.060096152126789,0,0.0841346159577369,0
492,0.0360576920211315,0,0.1802884638309478,0,0.144230768084526,0,-0.1081730797886848,0,-0.0528846159577369,0,0.1634615361690521,0,-0.060096152126789,0,-0.0480769239366054,0,-0.0240384619683027,0,0.0120192309841513,0,0.0480769239366054,0,0.0841346159577369,0
493,0.0360576920211315,0,0.1802884638309478,0,0.144230768084526,0,-0.1081730797886848,0,-0.0528846159577369,0,0.1634615361690521,0,-0.060096152126789,0,-0.0480769239366054,0,-0.0240384619683027,0,0.0120192309841513,0,0.0480769239366054,0,0.0841346159577369,0
494,0.0480769239366054,0,0.1802884638309478,0,0.1322115361690521,0,-0.112980768084526,0,-0.040865384042263,0,0.15625,0,-0.072115384042263,0,-0.0480769239366054,0,-0.0240384619683027,0,0.0240384619683027,0,0.0480769239366054,0,0.0841346159577369,0
495,0.0480769239366054,0,0.1802884638309478,0,0.1322115361690521,0,-0.112980768084526,0,-0.040865384042263,0,0.15625,0,-0.072115384042263,0,-0.0480769239366054,0,-0.0240384619683027,0,0.0240384619683027,0,0.0480769239366054,0,0.0841346159577369,0
496,0.0480769239366054,0,0.1682692319154739,0,0.1201923042535781,0,-0.1081730797886848,0,-0.0360576920211315,0,0.144230768084526,0,-0.072115384042263,0,-0.060096152126789,0,-0.0240384619683027,0,0.0120192309841513,0,0.0480769239366054,0,0.0841346159577369,0
497,0.0480769239366054,0,0.1682692319154739,0,0.1201923042535781,0,-0.1081730797886848,0,-0.0360576920211315,0,0.144230768084526,0,-0.072115384042263,0,-0.060096152126789,0,-0.0240384619683027,0,0.0120192309841513,0,0.0480769239366054,0,0.0841346159577369,0
498,0.0360576920211315,0,0.15625,0,0.1201923042535781,0,-0.0961538478732109,0,-0.040865384042263,0,0.1394230723381042,0,-0.072115384042263,0,-0.060096152126789,0,-0.0360576920211315,0,1e-07,0,0.0480769239366054,0,0.072115384042263,0
499,0.0360576920211315,0,0.15625,0,0.1201923042535781,0,-0.0961538478732109,0,-0.040865384042263,0,0.1394230723381042,0,-0.072115384042263,0,-0.060096152126789,0,-0.0360576920211315,0,1e-07,0,0.0480769239366054,0,0.072115384042263,0
500,0.0360576920211315,0,0.15625,0,0.1201923042535781,0,-0.0961538478732109,0,-0.040865384042263,0,0.1394230723381042,0,-0.072115384042263,0,-0.060096152126789,0,-0.0360576920211315,0,1e-07,0,0.0360576920211315,0,0.072115384042263,0
501,0.0360576920211315,0,0.15625,0,0.1201923042535781,0,-0.0961538478732109,0,-0.040865384042263,0,0.1394230723381042,0,-0.072115384042263,0,-0.060096152126789,0,-0.0360576920211315,0,1e-07,0,0.0360576920211315,0,0.072115384042263,0
502,0.0240384619683027,0,0.144230768084526,0,0.1201923042535781,0,-0.0841346159577369,0,-0.0480769239366054,0,0.1322115361690521,0,-0.072115384042263,0,-0.060096152126789,0,-0.0360576920211315,0,1e-07,0,0.0360576920211315,0,0.072115384042263,0
503,0.0240384619683027,0,0.144230768084526,0,0.1201923042535781,0,-0.0841346159577369,0,-0.0480769239366054,0,0.1322115361690521,0,-0.072115384042263,0,-0.060096152126789,0,-0.0360576920211315,0,1e-07,0,0.0360576920211315,0,0.072115384042263,0
504,0.0240384619683027,0,0.1322115361690521,0,0.1081730797886848,0,-0.0769230797886848,0,-0.040865384042263,0,0.1201923042535781,0,-0.060096152126789,0,-0.0480769239366054,0,-0.0360576920211315,0,1e-07,0,0.0240384619683027,0,0.060096152126789,0
505,0.0240384619683027,0,0.1322115361690521,0,0.1081730797886848,0,-0.0769230797886848,0,-0.040865384042263,0,0.1201923042535781,0,-0.060096152126789,0,-0.0480769239366054,0,-0.0360576920211315,0,1e-07,0,0.0240384619683027,0,0.060096152126789,0
506,0.0120192309841513,0,0.1201923042535781,0,0.1081730797886848,0,-0.0649038478732109,0,-0.0480769239366054,0,0.1153846159577369,0,-0.060096152126789,0,-0.060096152126789,0,-0.0360576920211315,0,1e-07,0,0.0360576920211315,0,0.060096152126789,0
507,0.0120192309841513,0,0.1201923042535781,0,0.1081730797886848,0,-0.0649038478732109,0,-0.0480769239366054,0,0.1153846159577369,0,-0.060096152126789,0,-0.060096152126789,0,-0.0360576920211315,0,1e-07,0,0.0360576920211315,0,0.060096152126789,0
508,1e-07,0,0.0841346159577369,0,0.0841346159577369,0,-0.040865384042263,0,-0.040865384042263,0,0.0841346159577369,0,-0.060096152126789,0,-0.072115384042263,0,-0.0480769239366054,0,-0.0240384619683027,0,1e-07,0,0.0360576920211315,0
509,1e-07,0,0.0841346159577369,0,0.0841346159577369,0,-0.040865384042263,0,-0.040865384042263,0,0.0841346159577369,0,-0.060096152126789,0,-0.072115384042263,0,-0.0480769239366054,0,-0.0240384619683027,0,1e-07,0,0.0360576920211315,0
510,1e-07,0,0.060096152126789,0,0.060096152126789,0,-0.0288461539894342,0,-0.0288461539894342,0,0.060096152126789,0,-0.060096152126789,0,-0.060096152126789,0,-0.060096152126789,0,-0.0360576920211315,0,1e-07,0,0.0240384619683027,0
511,1e-07,0,0.060096152126789,0,0.060096152126789,0,-0.0288461539894342,0,-0.0288461539894342,0,0.060096152126789,0,-0.060096152126789,0,-0.060096152126789,0,-0.060096152126789,0,-0.0360576920211315,0,1e-07,0,0.0240384619683027,0
512,1e-07,0,0.0480769239366054,0,0.0480769239366054,0,-0.0240384619683027,0,-0.0240384619683027,0,0.0480769239366054,0,-0.060096152126789,0,-0.072115384042263,0,-0.060096152126789,0,-0.0360576920211315,0,-0.0120192309841513,0,0.0240384619683027,0
513,1e-07,0,0.0480769239366054,0,0.0480769239366054,0,-0.0240384619683027,0,-0.0240384619683027,0,0.0480769239366054,0,-0.060096152126789,0,-0.072115384042263,0,-0.060096152126789,0,-0.0360576920211315,0,-0.0120192309841513,0,0.0240384619683027,0
514,1e-07,0,0.0360576920211315,0,0.0360576920211315,0,-0.0168269239366054,0,-0.0168269239366054,0,0.0360576920211315,0,-0.060096152126789,0,-0.072115384042263,0,-0.072115384042263,0,-0.0480769239366054,0,-0.0120192309841513,0,0.0120192309841513,0
515,1e-07,0,0.0360576920211315,0,0.0360576920211315,0,-0.0168269239366054,0,-0.0168269239366054,0,0.0360576920211315,0,-0.060096152126789,0,-0.072115384042263,0,-0.072115384042263,0,-0.0480769239366054,0,-0.0120192309841513,0,0.0120192309841513,0
516,1e-07,0,0.0360576920211315,0,0.0360576920211315,0,-0.0168269239366054,0,-0.0168269239366054,0,0.0360576920211315,0,-0.072115384042263,0,-0.0841346159577369,0,-0.0841346159577369,0,-0.060096152126789,0,-0.0240384619683027,0,0.0120192309841513,0
517,1e-07,0,0.0360576920211315,0,0.0360576920211315,0,-0.0168269239366054,0,-0.0168269239366054,0,0.0360576920211315,0,-0.072115384042263,0,-0.0841346159577369,0,-0.0841346159577369,0,-0.060096152126789,0,-0.0240384619683027,0,0.0120192309841513,0
518,-0.0120192309841513,0,0.0120192309841513,0,0.0240384619683027,0,1e-07,0,-0.0168269239366054,0,0.0168269239366054,0,-0.072115384042263,0,-0.0841346159577369,0,-0.0841346159577369,0,-0.072115384042263,0,-0.0360576920211315,0,1e-07,0
519,-0.0120192309841513,0,0.0120192309841513,0,0.0240384619683027,0,1e-07,0,-0.0168269239366054,0,0.0168269239366054,0,-0.072115384042263,0,-0.0841346159577369,0,-0.0841346159577369,0,-0.072115384042263,0,-0.0360576920211315,0,1e-07,0
520,-0.0120192309841513,0,1e-07,0,0.0120192309841513,0,0.0048076924867928,0,-0.0120192309841513,0,0.0048076924867928,0,-0.060096152126789,0,-0.072115384042263,0,-0.0841346159577369,0,-0.060096152126789,0,-0.0360576920211315,0,1e-07,0
521,-0.0120192309841513,0,1e-07,0,0.0120192309841513,0,0.0048076924867928,0,-0.0120192309841513,0,0.0048076924867928,0,-0.060096152126789,0,-0.072115384042263,0,-0.0841346159577369,0,-0.060096152126789,0,-0.0360576920211315,0,1e-07,0
522,-0.0120192309841513,0,-0.0120192309841513,0,1e-07,0,0.0120192309841513,0,-0.0072115384973585,0,-0.0072115384973585,0,-0.060096152126789,0,-0.072115384042263,0,-0.0841346159577369,0,-0.060096152126789,0,-0.0360576920211315,0,-0.0120192309841513,0
523,-0.0120192309841513,0,-0.0120192309841513,0,1e-07,0,0.0120192309841513,0,-0.0072115384973585,0,-0.0072115384973585,0,-0.060096152126789,0,-0.072115384042263,0,-0.0841346159577369,0,-0.060096152126789,0,-0.0360576920211315,0,-0.0120192309841513,0
524,-0.0120192309841513,0,1e-07,0,0.0120192309841513,0,0.0048076924867928,0,-0.0120192309841513,0,0.0048076924867928,0,-0.060096152126789,0,-0.072115384042263,0,-0.0841346159577369,0,-0.060096152126789,0,-0.0360576920211315,0,-0.0120192309841513,0
525,-0.0120192309841513,0,1e-07,0,0.0120192309841513,0,0.0048076924867928,0,-0.0120192309841513,0,0.0048076924867928,0,-0.060096152126789,0,-0.072115384042263,0,-0.0841346159577369,0,-0.060096152126789,0,-0.0360576920211315,0,-0.0120192309841513,0
526,-0.0240384619683027,0,-0.0120192309841513,0,0.0120192309841513,0,0.0168269239366054,0,-0.0192307699471712,0,1e-07,0,-0.060096152126789,0,-0.072115384042263,0,-0.0841346159577369,0,-0.060096152126789,0,-0.0360576920211315,0,-0.0120192309841513,0
527,-0.0240384619683027,0,-0.0120192309841513,0,0.0120192309841513,0,0.0168269239366054,0,-0.0192307699471712,0,1e-07,0,-0.060096152126789,0,-0.072115384042263,0,-0.0841346159577369,0,-0.060096152126789,0,-0.0360576920211315,0,-0.0120192309841513,0
528,-0.0240384619683027,0,-0.0120192309841513,0,0.0120192309841513,0,0.0168269239366054,0,-0.0192307699471712,0,1e-07,0,-0.060096152126789,0,-0.072115384042263,0,-0.0841346159577369,0,-0.060096152126789,0,-0.0360576920211315,0,-0.0120192309841513,0
529,-0.0240384619683027,0,-0.0120192309841513,0,0.0120192309841513,0,0.0168269239366054,0,-0.0192307699471712,0,1e-07,0,-0.060096152126789,0,-0.072115384042263,0,-0.0841346159577369,0,-0.060096152126789,0,-0.0360576920211315,0,-0.0120192309841513,0
530,-0.0240384619683027,0,-0.0120192309841513,0,0.0120192309841513,0,0.0168269239366054,0,-0.0192307699471712,0,1e-07,0,-0.0480769239366054,0,-0.072115384042263,0,-0.0841346159577369,0,-0.060096152126789,0,-0.0360576920211315,0,-0.0120192309841513,0
531,-0.0240384619683027,0,-0.0120192309841513,1,0.0120192309841513,0,0.0168269239366054,0,-0.0192307699471712,0,1e-07,1,-0.0480769239366054,0,-0.072115384042263,0,-0.0841346159577369,0,-0.060096152126789,0,-0.0360576920211315,0,-0.0120192309841513,1
532,-0.0240384619683027,1,-0.0240384619683027,1,1e-07,1,0.0240384619683027,0,-0.0120192309841513,0,-0.0120192309841513,1,-0.0360576920211315,0,-0.060096152126789,0,-0.072115384042263,0,-0.060096152126789,0,-0.0480769239366054,1,-0.0120192309841513,1
533,-0.0240384619683027,1,-0.0240384619683027,1,1e-07,1,0.0240384619683027,0,-0.0120192309841513,0,-0.0120192309841513,1,-0.0360576920211315,0,-0.060096152126789,0,-0.072115384042263,0,-0.060096152126789,0,-0.0480769239366054,1,-0.0120192309841513,1
534,-0.0240384619683027,1,-0.0240384619683027,1,1e-07,1,0.0240384619683027,1,-0.0120192309841513,0,-0.0120192309841513,1,-0.0240384619683027,1,-0.0480769239366054,1,-0.060096152126789,0,-0.0480769239366054,0,-0.0360576920211315,1,-0.0240384619683027,1
535,-0.0240384619683027,1,-0.0240384619683027,1,1e-07,1,0.0240384619683027,1,-0.0120192309841513,0,-0.0120192309841513,1,-0.0240384619683027,1,-0.0480769239366054,1,-0.060096152126789,1,-0.0480769239366054,0,-0.0360576920211315,1,-0.0240384619683027,1
536,-0.0360576920211315,1,-0.0480769239366054,1,-0.0120192309841513,1,0.040865384042263,1,-0.0120192309841513,1,-0.03125,1,0.0240384619683027,1,1e-07,1,-0.0240384619683027,1,-0.0360576920211315,1,-0.0480769239366054,1,-0.0360576920211315,1
537,-0.0360576920211315,1,-0.0480769239366054,1,-0.0120192309841513,1,0.040865384042263,1,-0.0120192309841513,1,-0.03125,1,0.0240384619683027,1,1e-07,1,-0.0240384619683027,1,-0.0360576920211315,1,-0.0480769239366054,1,-0.0360576920211315,1
538,-0.0480769239366054,1,-0.0841346159577369,1,-0.0360576920211315,1,0.0649038478732109,1,-0.0072115384973585,1,-0.060096152126789,1,0.1322115361690521,1,0.0841346159577369,1,0.0360576920211315,1,-0.0360576920211315,1,-0.072115384042263,1,-0.060096152126789,1
539,-0.0480769239366054,1,-0.0841346159577369,1,-0.0360576920211315,1,0.0649038478732109,1,-0.0072115384973585,1,-0.060096152126789,1,0.1322115361690521,1,0.0841346159577369,1,0.0360576920211315,1,-0.0360576920211315,1,-0.072115384042263,1,-0.060096152126789,1
540,-0.060096152126789,1,-0.1682692319154739,1,-0.1081730797886848,1,0.112980768084526,1,0.0240384619683027,1,-0.1394230723381042,1,0.2163461595773697,1,0.1682692319154739,1,0.1081730797886848,1,-0.0240384619683027,1,-0.1081730797886848,1,-0.1201923042535781,1
541,-0.060096152126789,1,-0.1682692319154739,1,-0.1081730797886848,1,0.112980768084526,1,0.0240384619683027,1,-0.1394230723381042,1,0.2163461595773697,1,0.1682692319154739,1,0.1081730797886848,1,-0.0240384619683027,1,-0.1081730797886848,1,-0.1201923042535781,1
542,-0.0360576920211315,1,-0.2403846085071563,1,-0.2043269276618957,1,0.1370192319154739,1,0.0841346159577369,1,-0.2235576957464218,1,0.2283653914928436,1,0.2524038553237915,1,0.1802884638309478,1,0.0120192309841513,1,-0.1201923042535781,1,-0.15625,1
543,-0.0360576920211315,1,-0.2403846085071563,1,-0.2043269276618957,1,0.1370192319154739,1,0.0841346159577369,1,-0.2235576957464218,1,0.2283653914928436,1,0.2524038553237915,1,0.1802884638309478,1,0.0120192309841513,1,-0.1201923042535781,1,-0.15625,1
544,0.0120192309841513,1,-0.2403846085071563,1,-0.2524038553237915,1,0.112980768084526,1,0.1322115361690521,1,-0.2451923042535781,1,0.1923076957464218,1,0.3485576808452606,1,0.3485576808452606,1,0.15625,1,-0.0480769239366054,1,-0.144230768084526,1
