index,I_value,I_label,II_value,II_label,III_value,III_label,aVR_value,aVR_label,aVL_value,aVL_label,aVF_value,aVF_label,V1_value,V1_label,V2_value,V2_label,V3_value,V3_label,V4_value,V4_label,V5_value,V5_label,V6_value,V6_label
0,0.0360576920211315,0,0.1682692319154739,0,0.1322115361690521,0,-0.1009615361690521,0,-0.0480769239366054,0,0.1514423042535781,0,-0.0480769239366054,0,-0.0240384619683027,0,0.1201923042535781,0,0.1802884638309478,0,0.1923076957464218,0,0.2043269276618957,0
1,0.0360576920211315,0,0.1682692319154739,0,0.1322115361690521,0,-0.1009615361690521,0,-0.0480769239366054,0,0.1514423042535781,0,-0.0480769239366054,0,-0.0240384619683027,0,0.1201923042535781,0,0.1802884638309478,0,0.1923076957464218,0,0.2043269276618957,0
2,0.0360576920211315,0,0.144230768084526,0,0.1081730797886848,0,-0.0889423042535781,0,-0.0360576920211315,0,0.1274038404226303,0,-0.0360576920211315,0,0.0120192309841513,0,0.1081730797886848,0,0.144230768084526,0,0.1682692319154739,0,0.1682692319154739,0
3,0.0360576920211315,0,0.144230768084526,0,0.1081730797886848,0,-0.0889423042535781,0,-0.0360576920211315,0,0.1274038404226303,0,-0.0360576920211315,0,0.0120192309841513,0,0.1081730797886848,0,0.144230768084526,0,0.1682692319154739,0,0.1682692319154739,0
4,0.0360576920211315,0,0.1201923042535781,0,0.0841346159577369,0,-0.0769230797886848,0,-0.0240384619683027,0,0.103365384042263,0,-0.0360576920211315,0,0.0240384619683027,0,0.0841346159577369,0,0.1322115361690521,0,0.144230768084526,0,0.144230768084526,0
5,0.0360576920211315,0,0.1201923042535781,0,0.0841346159577369,0,-0.0769230797886848,0,-0.0240384619683027,0,0.103365384042263,0,-0.0360576920211315,0,0.0240384619683027,0,0.0841346159577369,0,0.1322115361690521,0,0.144230768084526,0,0.144230768084526,0
6,0.0240384619683027,0,0.0841346159577369,0,0.060096152126789,0,-0.0528846159577369,0,-0.0168269239366054,0,0.072115384042263,0,-0.0240384619683027,0,-0.0120192309841513,0,0.072115384042263,0,0.1081730797886848,0,0.1081730797886848,0,0.1201923042535781,0
7,0.0240384619683027,0,0.0841346159577369,0,0.060096152126789,0,-0.0528846159577369,0,-0.0168269239366054,0,0.072115384042263,0,-0.0240384619683027,0,-0.0120192309841513,0,0.072115384042263,0,0.1081730797886848,0,0.1081730797886848,0,0.1201923042535781,0
8,0.0240384619683027,0,0.072115384042263,0,0.0480769239366054,0,-0.0480769239366054,0,-0.0120192309841513,0,0.060096152126789,0,-0.0240384619683027,0,0.0120192309841513,0,0.060096152126789,0,0.0841346159577369,0,0.0961538478732109,0,0.0961538478732109,0
9,0.0240384619683027,0,0.072115384042263,0,0.0480769239366054,0,-0.0480769239366054,0,-0.0120192309841513,0,0.060096152126789,0,-0.0240384619683027,0,0.0120192309841513,0,0.060096152126789,0,0.0841346159577369,0,0.0961538478732109,0,0.0961538478732109,0
10,0.0240384619683027,0,0.0480769239366054,0,0.0240384619683027,0,-0.0360576920211315,0,1e-07,0,0.0360576920211315,0,-0.0240384619683027,0,0.0120192309841513,0,0.0480769239366054,0,0.060096152126789,0,0.060096152126789,0,0.072115384042263,0
11,0.0240384619683027,0,0.0480769239366054,0,0.0240384619683027,0,-0.0360576920211315,0,1e-07,0,0.0360576920211315,0,-0.0240384619683027,0,0.0120192309841513,0,0.0480769239366054,0,0.060096152126789,0,0.060096152126789,0,0.072115384042263,0
12,0.0240384619683027,0,0.0480769239366054,0,0.0240384619683027,0,-0.0360576920211315,0,1e-07,0,0.0360576920211315,0,-0.0120192309841513,0,1e-07,0,0.0360576920211315,0,0.0480769239366054,0,0.0480769239366054,0,0.060096152126789,0
13,0.0240384619683027,0,0.0480769239366054,0,0.0240384619683027,0,-0.0360576920211315,0,1e-07,0,0.0360576920211315,0,-0.0120192309841513,0,1e-07,0,0.0360576920211315,0,0.0480769239366054,0,0.0480769239366054,0,0.060096152126789,0
14,0.0120192309841513,0,0.0360576920211315,0,0.0240384619683027,0,-0.0240384619683027,0,-0.0048076924867928,0,0.03125,0,-0.0120192309841513,0,1e-07,0,0.0240384619683027,0,0.0360576920211315,0,0.0360576920211315,0,0.0480769239366054,0
15,0.0120192309841513,0,0.0360576920211315,0,0.0240384619683027,0,-0.0240384619683027,0,-0.0048076924867928,0,0.03125,0,-0.0120192309841513,0,1e-07,0,0.0240384619683027,0,0.0360576920211315,0,0.0360576920211315,0,0.0480769239366054,0
16,0.0120192309841513,0,0.0240384619683027,0,0.0120192309841513,0,-0.0168269239366054,0,1e-07,0,0.0192307699471712,0,1e-07,0,0.0240384619683027,0,0.0240384619683027,0,0.0240384619683027,0,0.0360576920211315,0,0.0360576920211315,0
17,0.0120192309841513,0,0.0240384619683027,0,0.0120192309841513,0,-0.0168269239366054,0,1e-07,0,0.0192307699471712,0,1e-07,0,0.0240384619683027,0,0.0240384619683027,0,0.0240384619683027,0,0.0360576920211315,0,0.0360576920211315,0
18,0.0120192309841513,0,0.0120192309841513,0,1e-07,0,-0.0120192309841513,0,0.0072115384973585,0,0.0072115384973585,0,1e-07,0,-0.060096152126789,0,0.0120192309841513,0,0.0240384619683027,0,0.0240384619683027,0,0.0240384619683027,0
19,0.0120192309841513,0,0.0120192309841513,0,1e-07,0,-0.0120192309841513,0,0.0072115384973585,0,0.0072115384973585,0,1e-07,0,-0.060096152126789,0,0.0120192309841513,0,0.0240384619683027,0,0.0240384619683027,0,0.0240384619683027,0
20,0.0120192309841513,0,0.0120192309841513,0,1e-07,0,-0.0120192309841513,0,0.0072115384973585,0,0.0072115384973585,0,1e-07,0,-0.0360576920211315,0,0.0120192309841513,0,0.0120192309841513,0,0.0240384619683027,0,0.0120192309841513,0
21,0.0120192309841513,0,0.0120192309841513,0,1e-07,0,-0.0120192309841513,0,0.0072115384973585,0,0.0072115384973585,0,1e-07,0,-0.0360576920211315,0,0.0120192309841513,0,0.0120192309841513,0,0.0240384619683027,0,0.0120192309841513,0
22,0.0120192309841513,0,1e-07,0,-0.0120192309841513,0,-0.0048076924867928,0,0.0120192309841513,0,-0.0048076924867928,0,1e-07,0,-0.0120192309841513,0,1e-07,0,0.0120192309841513,0,0.0120192309841513,0,0.0120192309841513,0
23,0.0120192309841513,0,1e-07,0,-0.0120192309841513,0,-0.0048076924867928,0,0.0120192309841513,0,-0.0048076924867928,0,1e-07,0,-0.0120192309841513,0,1e-07,0,0.0120192309841513,0,0.0120192309841513,0,0.0120192309841513,0
24,1e-07,0,1e-07,0,1e-07,0,1e-07,0,1e-07,0,1e-07,0,1e-07,0,0.0360576920211315,0,1e-07,0,1e-07,0,0.0120192309841513,0,0.0120192309841513,0
25,1e-07,0,1e-07,0,1e-07,0,1e-07,0,1e-07,0,1e-07,0,1e-07,0,0.0360576920211315,0,1e-07,0,1e-07,0,0.0120192309841513,0,0.0120192309841513,0
26,1e-07,0,1e-07,0,1e-07,0,1e-07,0,1e-07,0,1e-07,0,1e-07,0,-0.0480769239366054,0,-0.0120192309841513,0,1e-07,0,1e-07,0,1e-07,0
27,1e-07,0,1e-07,0,1e-07,0,1e-07,0,1e-07,0,1e-07,0,1e-07,0,-0.0480769239366054,0,-0.0120192309841513,0,1e-07,0,1e-07,0,1e-07,0
28,1e-07,0,1e-07,0,1e-07,0,1e-07,0,1e-07,0,1e-07,0,1e-07,0,0.0360576920211315,0,-0.0120192309841513,0,-0.0120192309841513,0,-0.0120192309841513,0,-0.0120192309841513,0
29,1e-07,0,1e-07,0,1e-07,0,1e-07,0,1e-07,0,1e-07,0,1e-07,0,0.0360576920211315,0,-0.0120192309841513,0,-0.0120192309841513,0,-0.0120192309841513,0,-0.0120192309841513,0
30,1e-07,0,1e-07,0,1e-07,0,1e-07,0,1e-07,0,1e-07,0,1e-07,0,-0.0120192309841513,0,-0.0120192309841513,0,-0.0120192309841513,0,-0.0120192309841513,0,-0.0120192309841513,0
31,1e-07,0,1e-07,0,1e-07,0,1e-07,0,1e-07,0,1e-07,0,1e-07,0,-0.0120192309841513,0,-0.0120192309841513,0,-0.0120192309841513,0,-0.0120192309841513,0,-0.0120192309841513,0
32,1e-07,0,1e-07,0,1e-07,0,1e-07,0,1e-07,0,1e-07,0,1e-07,0,0.0120192309841513,0,-0.0120192309841513,0,-0.0120192309841513,0,-0.0120192309841513,0,-0.0120192309841513,0
33,1e-07,0,1e-07,0,1e-07,0,1e-07,0,1e-07,0,1e-07,0,1e-07,0,0.0120192309841513,0,-0.0120192309841513,0,-0.0120192309841513,0,-0.0120192309841513,0,-0.0120192309841513,0
34,1e-07,0,1e-07,0,1e-07,0,1e-07,0,1e-07,0,1e-07,0,1e-07,0,-0.0120192309841513,0,-0.0120192309841513,0,-0.0120192309841513,0,-0.0120192309841513,0,-0.0120192309841513,0
35,1e-07,0,1e-07,0,1e-07,0,1e-07,0,1e-07,0,1e-07,0,1e-07,0,-0.0120192309841513,0,-0.0120192309841513,0,-0.0120192309841513,0,-0.0120192309841513,0,-0.0120192309841513,0
36,1e-07,0,-0.0240384619683027,0,-0.0240384619683027,0,0.0120192309841513,0,0.0120192309841513,0,-0.0240384619683027,0,0.0120192309841513,0,0.0360576920211315,0,-0.0120192309841513,0,-0.0120192309841513,0,-0.0120192309841513,0,1e-07,0
37,1e-07,0,-0.0240384619683027,0,-0.0240384619683027,0,0.0120192309841513,0,0.0120192309841513,0,-0.0240384619683027,0,0.0120192309841513,0,0.0360576920211315,0,-0.0120192309841513,0,-0.0120192309841513,0,-0.0120192309841513,0,1e-07,0
38,1e-07,0,-0.0240384619683027,0,-0.0240384619683027,0,0.0120192309841513,0,0.0120192309841513,0,-0.0240384619683027,0,1e-07,0,-0.0360576920211315,0,-0.0120192309841513,0,-0.0120192309841513,0,1e-07,0,1e-07,0
39,1e-07,0,-0.0240384619683027,0,-0.0240384619683027,0,0.0120192309841513,0,0.0120192309841513,0,-0.0240384619683027,0,1e-07,0,-0.0360576920211315,0,-0.0120192309841513,0,-0.0120192309841513,0,1e-07,0,1e-07,0
40,1e-07,0,-0.0240384619683027,0,-0.0240384619683027,0,0.0120192309841513,0,0.0120192309841513,0,-0.0240384619683027,0,1e-07,0,0.0120192309841513,0,-0.0120192309841513,0,-0.0120192309841513,0,0.0120192309841513,0,0.0120192309841513,0
41,1e-07,0,-0.0240384619683027,0,-0.0240384619683027,0,0.0120192309841513,0,0.0120192309841513,0,-0.0240384619683027,0,1e-07,0,0.0120192309841513,0,-0.0120192309841513,0,-0.0120192309841513,0,0.0120192309841513,0,0.0120192309841513,0
42,1e-07,0,-0.0360576920211315,0,-0.0360576920211315,0,0.0168269239366054,0,0.0168269239366054,0,-0.0360576920211315,0,0.0120192309841513,0,0.0480769239366054,0,1e-07,0,-0.0120192309841513,0,1e-07,0,0.0120192309841513,0
43,1e-07,0,-0.0360576920211315,0,-0.0360576920211315,0,0.0168269239366054,0,0.0168269239366054,0,-0.0360576920211315,0,0.0120192309841513,0,0.0480769239366054,0,1e-07,0,-0.0120192309841513,0,1e-07,0,0.0120192309841513,0
44,1e-07,0,-0.0240384619683027,0,-0.0240384619683027,0,0.0120192309841513,0,0.0120192309841513,0,-0.0240384619683027,0,1e-07,0,-0.0360576920211315,0,-0.0120192309841513,0,-0.0120192309841513,0,1e-07,0,1e-07,0
45,1e-07,0,-0.0240384619683027,0,-0.0240384619683027,0,0.0120192309841513,0,0.0120192309841513,0,-0.0240384619683027,0,1e-07,0,-0.0360576920211315,0,-0.0120192309841513,0,-0.0120192309841513,0,1e-07,0,1e-07,0
46,1e-07,0,-0.0120192309841513,0,-0.0120192309841513,0,0.0048076924867928,0,0.0048076924867928,0,-0.0120192309841513,0,1e-07,0,-0.0480769239366054,0,-0.0120192309841513,0,-0.0120192309841513,0,1e-07,0,1e-07,0
47,1e-07,0,-0.0120192309841513,0,-0.0120192309841513,0,0.0048076924867928,0,0.0048076924867928,0,-0.0120192309841513,0,1e-07,0,-0.0480769239366054,0,-0.0120192309841513,0,-0.0120192309841513,0,1e-07,0,1e-07,0
48,1e-07,0,1e-07,0,1e-07,0,1e-07,0,1e-07,0,1e-07,0,-0.0120192309841513,0,0.0360576920211315,0,-0.0120192309841513,0,-0.0240384619683027,0,-0.0120192309841513,0,-0.0120192309841513,0
49,1e-07,0,1e-07,0,1e-07,0,1e-07,0,1e-07,0,1e-07,0,-0.0120192309841513,0,0.0360576920211315,0,-0.0120192309841513,0,-0.0240384619683027,0,-0.0120192309841513,0,-0.0120192309841513,0
50,1e-07,0,1e-07,0,1e-07,0,1e-07,0,1e-07,0,1e-07,0,-0.0120192309841513,0,-0.0120192309841513,0,-0.0240384619683027,0,-0.0240384619683027,0,-0.0120192309841513,0,-0.0120192309841513,0
51,1e-07,0,1e-07,0,1e-07,0,1e-07,0,1e-07,0,1e-07,0,-0.0120192309841513,0,-0.0120192309841513,0,-0.0240384619683027,0,-0.0240384619683027,0,-0.0120192309841513,0,-0.0120192309841513,0
52,1e-07,0,1e-07,0,1e-07,0,1e-07,0,1e-07,0,1e-07,0,1e-07,0,0.0240384619683027,0,-0.0120192309841513,0,-0.0240384619683027,0,-0.0120192309841513,0,-0.0120192309841513,0
53,1e-07,0,1e-07,0,1e-07,0,1e-07,0,1e-07,0,1e-07,0,1e-07,0,0.0240384619683027,0,-0.0120192309841513,0,-0.0240384619683027,0,-0.0120192309841513,0,-0.0120192309841513,0
54,1e-07,0,1e-07,0,1e-07,0,1e-07,0,1e-07,0,1e-07,0,1e-07,0,-0.0120192309841513,0,-0.0240384619683027,0,-0.0240384619683027,0,-0.0120192309841513,0,-0.0120192309841513,0
55,1e-07,0,1e-07,0,1e-07,0,1e-07,0,1e-07,0,1e-07,0,1e-07,0,-0.0120192309841513,0,-0.0240384619683027,0,-0.0240384619683027,0,-0.0120192309841513,0,-0.0120192309841513,0
56,1e-07,0,-0.0120192309841513,0,-0.0120192309841513,0,0.0048076924867928,0,0.0048076924867928,0,-0.0120192309841513,0,-0.0120192309841513,0,0.0120192309841513,0,-0.0120192309841513,0,-0.0240384619683027,0,-0.0120192309841513,0,1e-07,0
57,1e-07,0,-0.0120192309841513,0,-0.0120192309841513,0,0.0048076924867928,0,0.0048076924867928,0,-0.0120192309841513,0,-0.0120192309841513,0,0.0120192309841513,0,-0.0120192309841513,0,-0.0240384619683027,0,-0.0120192309841513,0,1e-07,0
58,1e-07,0,-0.0120192309841513,0,-0.0120192309841513,0,0.0048076924867928,0,0.0048076924867928,0,-0.0120192309841513,0,1e-07,0,-0.0120192309841513,0,-0.0120192309841513,0,-0.0240384619683027,0,-0.0120192309841513,0,-0.0120192309841513,0
59,1e-07,0,-0.0120192309841513,0,-0.0120192309841513,0,0.0048076924867928,0,0.0048076924867928,0,-0.0120192309841513,0,1e-07,0,-0.0120192309841513,0,-0.0120192309841513,0,-0.0240384619683027,0,-0.0120192309841513,0,-0.0120192309841513,0
60,1e-07,0,-0.0120192309841513,0,-0.0120192309841513,0,0.0048076924867928,0,0.0048076924867928,0,-0.0120192309841513,0,0.0120192309841513,0,0.0240384619683027,0,-0.0120192309841513,0,-0.0240384619683027,0,-0.0120192309841513,0,-0.0120192309841513,0
61,1e-07,0,-0.0120192309841513,0,-0.0120192309841513,0,0.0048076924867928,0,0.0048076924867928,0,-0.0120192309841513,0,0.0120192309841513,0,0.0240384619683027,0,-0.0120192309841513,0,-0.0240384619683027,0,-0.0120192309841513,0,-0.0120192309841513,0
62,1e-07,0,-0.0120192309841513,0,-0.0120192309841513,0,0.0048076924867928,0,0.0048076924867928,0,-0.0120192309841513,0,1e-07,0,0.0120192309841513,0,-0.0120192309841513,0,-0.0240384619683027,0,-0.0120192309841513,0,-0.0120192309841513,0
63,1e-07,0,-0.0120192309841513,0,-0.0120192309841513,0,0.0048076924867928,0,0.0048076924867928,0,-0.0120192309841513,0,1e-07,0,0.0120192309841513,0,-0.0120192309841513,0,-0.0240384619683027,0,-0.0120192309841513,0,-0.0120192309841513,0
64,1e-07,0,1e-07,0,1e-07,0,1e-07,0,1e-07,0,1e-07,0,1e-07,0,-0.060096152126789,0,-0.0120192309841513,0,-0.0240384619683027,0,-0.0120192309841513,0,-0.0120192309841513,0
65,1e-07,0,1e-07,0,1e-07,0,1e-07,0,1e-07,0,1e-07,0,1e-07,0,-0.060096152126789,0,-0.0120192309841513,0,-0.0240384619683027,0,-0.0120192309841513,0,-0.0120192309841513,0
66,1e-07,0,-0.0120192309841513,0,-0.0120192309841513,0,0.0048076924867928,0,0.0048076924867928,0,-0.0120192309841513,0,1e-07,0,-0.0480769239366054,0,-0.0120192309841513,0,-0.0240384619683027,0,-0.0120192309841513,0,-0.0120192309841513,0
67,1e-07,0,-0.0120192309841513,0,-0.0120192309841513,0,0.0048076924867928,0,0.0048076924867928,0,-0.0120192309841513,0,1e-07,0,-0.0480769239366054,0,-0.0120192309841513,0,-0.0240384619683027,0,-0.0120192309841513,0,-0.0120192309841513,0
68,1e-07,0,-0.0120192309841513,0,-0.0120192309841513,0,0.0048076924867928,0,0.0048076924867928,0,-0.0120192309841513,0,0.0120192309841513,0,-0.060096152126789,0,-0.0120192309841513,0,-0.0120192309841513,0,-0.0120192309841513,0,-0.0120192309841513,0
69,1e-07,0,-0.0120192309841513,0,-0.0120192309841513,0,0.0048076924867928,0,0.0048076924867928,0,-0.0120192309841513,0,0.0120192309841513,0,-0.060096152126789,0,-0.0120192309841513,0,-0.0120192309841513,0,-0.0120192309841513,0,-0.0120192309841513,0
70,1e-07,0,-0.0120192309841513,0,-0.0120192309841513,0,0.0048076924867928,0,0.0048076924867928,0,-0.0120192309841513,0,0.0120192309841513,0,-0.0480769239366054,0,-0.0120192309841513,0,-0.0120192309841513,0,-0.0120192309841513,0,-0.0120192309841513,0
71,1e-07,0,-0.0120192309841513,0,-0.0120192309841513,0,0.0048076924867928,0,0.0048076924867928,0,-0.0120192309841513,0,0.0120192309841513,0,-0.0480769239366054,0,-0.0120192309841513,0,-0.0120192309841513,0,-0.0120192309841513,0,-0.0120192309841513,0
72,1e-07,0,-0.0120192309841513,0,-0.0120192309841513,0,0.0048076924867928,0,0.0048076924867928,0,-0.0120192309841513,0,0.0120192309841513,0,0.0480769239366054,0,1e-07,0,-0.0120192309841513,0,-0.0120192309841513,0,1e-07,0
73,1e-07,0,-0.0120192309841513,0,-0.0120192309841513,0,0.0048076924867928,0,0.0048076924867928,0,-0.0120192309841513,0,0.0120192309841513,0,0.0480769239366054,0,1e-07,0,-0.0120192309841513,0,-0.0120192309841513,0,1e-07,0
74,1e-07,0,-0.0120192309841513,0,-0.0120192309841513,0,0.0048076924867928,0,0.0048076924867928,0,-0.0120192309841513,0,0.0120192309841513,0,0.0120192309841513,0,-0.0120192309841513,0,-0.0120192309841513,0,1e-07,0,1e-07,0
75,1e-07,0,-0.0120192309841513,0,-0.0120192309841513,0,0.0048076924867928,0,0.0048076924867928,0,-0.0120192309841513,0,0.0120192309841513,0,0.0120192309841513,0,-0.0120192309841513,0,-0.0120192309841513,0,1e-07,0,1e-07,0
76,1e-07,0,-0.0120192309841513,0,-0.0120192309841513,0,0.0048076924867928,0,0.0048076924867928,0,-0.0120192309841513,0,0.0120192309841513,0,0.0240384619683027,0,-0.0120192309841513,0,-0.0120192309841513,0,-0.0120192309841513,0,1e-07,0
77,1e-07,0,-0.0120192309841513,0,-0.0120192309841513,0,0.0048076924867928,0,0.0048076924867928,0,-0.0120192309841513,0,0.0120192309841513,0,0.0240384619683027,0,-0.0120192309841513,0,-0.0120192309841513,0,-0.0120192309841513,0,1e-07,0
78,0.0120192309841513,0,1e-07,0,-0.0120192309841513,0,-0.0048076924867928,0,0.0120192309841513,0,-0.0048076924867928,0,1e-07,0,0.0360576920211315,0,1e-07,0,-0.0120192309841513,0,-0.0120192309841513,0,-0.0120192309841513,0
79,0.0120192309841513,0,1e-07,0,-0.0120192309841513,0,-0.0048076924867928,0,0.0120192309841513,0,-0.0048076924867928,0,1e-07,0,0.0360576920211315,0,1e-07,0,-0.0120192309841513,0,-0.0120192309841513,0,-0.0120192309841513,0
80,1e-07,0,1e-07,0,1e-07,0,1e-07,0,1e-07,0,1e-07,0,0.0120192309841513,0,-0.0240384619683027,0,1e-07,0,1e-07,0,1e-07,0,1e-07,0
81,1e-07,0,1e-07,0,1e-07,0,1e-07,0,1e-07,0,1e-07,0,0.0120192309841513,0,-0.0240384619683027,0,1e-07,0,1e-07,0,1e-07,0,1e-07,0
82,1e-07,0,1e-07,0,1e-07,0,1e-07,0,1e-07,0,1e-07,0,0.0120192309841513,0,-0.0120192309841513,0,1e-07,0,1e-07,0,1e-07,0,1e-07,0
83,1e-07,0,1e-07,0,1e-07,0,1e-07,0,1e-07,0,1e-07,0,0.0120192309841513,0,-0.0120192309841513,0,1e-07,0,1e-07,0,1e-07,0,1e-07,0
84,1e-07,0,-0.0120192309841513,0,-0.0120192309841513,0,0.0048076924867928,0,0.0048076924867928,0,-0.0120192309841513,0,0.0120192309841513,0,0.0480769239366054,0,1e-07,0,1e-07,0,1e-07,0,1e-07,0
85,1e-07,0,-0.0120192309841513,0,-0.0120192309841513,0,0.0048076924867928,0,0.0048076924867928,0,-0.0120192309841513,0,0.0120192309841513,0,0.0480769239366054,0,1e-07,0,1e-07,0,1e-07,0,1e-07,0
86,1e-07,0,-0.0120192309841513,0,-0.0120192309841513,0,0.0048076924867928,0,0.0048076924867928,0,-0.0120192309841513,0,0.0120192309841513,0,0.0480769239366054,0,1e-07,0,1e-07,0,1e-07,0,1e-07,0
87,1e-07,0,-0.0120192309841513,0,-0.0120192309841513,0,0.0048076924867928,0,0.0048076924867928,0,-0.0120192309841513,0,0.0120192309841513,0,0.0480769239366054,0,1e-07,0,1e-07,0,1e-07,0,1e-07,0
88,0.0120192309841513,0,-0.0120192309841513,0,-0.0240384619683027,0,1e-07,0,0.0168269239366054,0,-0.0168269239366054,0,0.0120192309841513,0,-0.0360576920211315,0,0.0120192309841513,0,1e-07,0,1e-07,0,1e-07,0
89,0.0120192309841513,0,-0.0120192309841513,0,-0.0240384619683027,0,1e-07,0,0.0168269239366054,0,-0.0168269239366054,0,0.0120192309841513,0,-0.0360576920211315,0,0.0120192309841513,0,1e-07,0,1e-07,0,1e-07,0
90,0.0120192309841513,0,-0.0120192309841513,0,-0.0240384619683027,0,1e-07,0,0.0168269239366054,0,-0.0168269239366054,0,0.0120192309841513,0,0.0120192309841513,0,0.0120192309841513,0,1e-07,0,0.0120192309841513,0,0.0120192309841513,0
91,0.0120192309841513,0,-0.0120192309841513,0,-0.0240384619683027,0,1e-07,0,0.0168269239366054,0,-0.0168269239366054,0,0.0120192309841513,0,0.0120192309841513,0,0.0120192309841513,0,1e-07,0,0.0120192309841513,0,0.0120192309841513,0
92,0.0120192309841513,0,1e-07,0,-0.0120192309841513,0,-0.0048076924867928,0,0.0120192309841513,0,-0.0048076924867928,0,1e-07,0,-0.0480769239366054,0,1e-07,0,1e-07,0,1e-07,0,1e-07,0
93,0.0120192309841513,0,1e-07,0,-0.0120192309841513,0,-0.0048076924867928,0,0.0120192309841513,0,-0.0048076924867928,0,1e-07,0,-0.0480769239366054,0,1e-07,0,1e-07,0,1e-07,0,1e-07,0
94,1e-07,0,0.0120192309841513,0,0.0120192309841513,0,-0.0048076924867928,0,-0.0048076924867928,0,0.0120192309841513,0,0.0120192309841513,0,-0.0120192309841513,0,1e-07,0,1e-07,0,1e-07,0,1e-07,0
95,1e-07,0,0.0120192309841513,0,0.0120192309841513,0,-0.0048076924867928,0,-0.0048076924867928,0,0.0120192309841513,0,0.0120192309841513,0,-0.0120192309841513,0,1e-07,0,1e-07,0,1e-07,0,1e-07,0
96,0.0120192309841513,0,0.0120192309841513,0,1e-07,0,-0.0120192309841513,0,0.0072115384973585,0,0.0072115384973585,0,0.0120192309841513,0,0.0360576920211315,0,0.0120192309841513,0,0.0120192309841513,0,1e-07,0,1e-07,0
97,0.0120192309841513,0,0.0120192309841513,0,1e-07,0,-0.0120192309841513,0,0.0072115384973585,0,0.0072115384973585,0,0.0120192309841513,0,0.0360576920211315,0,0.0120192309841513,0,0.0120192309841513,0,1e-07,0,1e-07,0
98,0.0120192309841513,0,0.0120192309841513,0,1e-07,0,-0.0120192309841513,0,0.0072115384973585,0,0.0072115384973585,0,1e-07,0,0.0360576920211315,0,0.0120192309841513,0,0.0120192309841513,0,0.0120192309841513,0,1e-07,0
99,0.0120192309841513,0,0.0120192309841513,0,1e-07,0,-0.0120192309841513,0,0.0072115384973585,0,0.0072115384973585,0,1e-07,0,0.0360576920211315,0,0.0120192309841513,0,0.0120192309841513,0,0.0120192309841513,0,1e-07,0
100,1e-07,0,1e-07,0,1e-07,0,1e-07,0,1e-07,0,1e-07,0,1e-07,0,0.0360576920211315,0,0.0120192309841513,0,0.0120192309841513,0,0.0120192309841513,0,0.0120192309841513,0
101,1e-07,0,1e-07,0,1e-07,0,1e-07,0,1e-07,0,1e-07,0,1e-07,0,0.0360576920211315,0,0.0120192309841513,0,0.0120192309841513,0,0.0120192309841513,0,0.0120192309841513,0
102,1e-07,0,1e-07,0,1e-07,0,1e-07,0,1e-07,0,1e-07,0,1e-07,0,-0.0120192309841513,0,0.0120192309841513,0,0.0120192309841513,0,0.0120192309841513,0,0.0120192309841513,0
103,1e-07,0,1e-07,0,1e-07,0,1e-07,0,1e-07,0,1e-07,0,1e-07,0,-0.0120192309841513,0,0.0120192309841513,0,0.0120192309841513,0,0.0120192309841513,0,0.0120192309841513,0
104,1e-07,0,1e-07,0,1e-07,0,1e-07,0,1e-07,0,1e-07,0,1e-07,0,-0.0360576920211315,0,0.0120192309841513,0,0.0240384619683027,0,0.0120192309841513,0,0.0120192309841513,0
105,1e-07,0,1e-07,0,1e-07,0,1e-07,0,1e-07,0,1e-07,0,1e-07,0,-0.0360576920211315,0,0.0120192309841513,0,0.0240384619683027,0,0.0120192309841513,0,0.0120192309841513,0
106,0.0120192309841513,0,0.0120192309841513,0,1e-07,0,-0.0120192309841513,0,0.0072115384973585,0,0.0072115384973585,0,1e-07,0,-0.060096152126789,0,0.0120192309841513,0,0.0240384619683027,0,0.0120192309841513,0,0.0120192309841513,0
107,0.0120192309841513,0,0.0120192309841513,0,1e-07,0,-0.0120192309841513,0,0.0072115384973585,0,0.0072115384973585,0,1e-07,0,-0.060096152126789,0,0.0120192309841513,0,0.0240384619683027,0,0.0120192309841513,0,0.0120192309841513,0
108,1e-07,0,0.0120192309841513,0,0.0120192309841513,0,-0.0048076924867928,0,-0.0048076924867928,0,0.0120192309841513,0,1e-07,0,0.0360576920211315,0,0.0120192309841513,0,0.0120192309841513,0,0.0120192309841513,0,0.0120192309841513,0
109,1e-07,0,0.0120192309841513,0,0.0120192309841513,0,-0.0048076924867928,0,-0.0048076924867928,0,0.0120192309841513,0,1e-07,0,0.0360576920211315,0,0.0120192309841513,0,0.0120192309841513,0,0.0120192309841513,0,0.0120192309841513,0
110,1e-07,0,1e-07,0,1e-07,0,1e-07,0,1e-07,0,1e-07,0,0.0120192309841513,0,0.0480769239366054,0,0.0120192309841513,0,0.0240384619683027,0,0.0120192309841513,0,0.0120192309841513,0
111,1e-07,0,1e-07,0,1e-07,0,1e-07,0,1e-07,0,1e-07,0,0.0120192309841513,0,0.0480769239366054,0,0.0120192309841513,0,0.0240384619683027,0,0.0120192309841513,0,0.0120192309841513,0
112,1e-07,0,1e-07,0,1e-07,0,1e-07,0,1e-07,0,1e-07,0,0.0120192309841513,0,-0.0480769239366054,0,0.0120192309841513,0,0.0240384619683027,0,0.0240384619683027,0,0.0120192309841513,0
113,1e-07,0,1e-07,0,1e-07,0,1e-07,0,1e-07,0,1e-07,0,0.0120192309841513,0,-0.0480769239366054,0,0.0120192309841513,0,0.0240384619683027,0,0.0240384619683027,0,0.0120192309841513,0
114,1e-07,0,1e-07,0,1e-07,0,1e-07,0,1e-07,0,1e-07,0,0.0120192309841513,0,-0.0120192309841513,0,0.0120192309841513,0,0.0240384619683027,0,0.0120192309841513,0,0.0120192309841513,0
115,1e-07,0,1e-07,0,1e-07,0,1e-07,0,1e-07,0,1e-07,0,0.0120192309841513,0,-0.0120192309841513,0,0.0120192309841513,0,0.0240384619683027,0,0.0120192309841513,0,0.0120192309841513,0
116,1e-07,0,1e-07,0,1e-07,0,1e-07,0,1e-07,0,1e-07,0,0.0120192309841513,0,0.0360576920211315,0,0.0120192309841513,0,0.0120192309841513,0,0.0120192309841513,0,0.0120192309841513,0
117,1e-07,0,1e-07,0,1e-07,0,1e-07,0,1e-07,0,1e-07,0,0.0120192309841513,0,0.0360576920211315,0,0.0120192309841513,0,0.0120192309841513,0,0.0120192309841513,0,0.0120192309841513,0
118,1e-07,0,1e-07,0,1e-07,0,1e-07,0,1e-07,0,1e-07,0,1e-07,0,-0.0120192309841513,0,0.0120192309841513,0,0.0120192309841513,0,0.0120192309841513,0,1e-07,0
119,1e-07,0,1e-07,0,1e-07,0,1e-07,0,1e-07,0,1e-07,0,1e-07,0,-0.0120192309841513,0,0.0120192309841513,0,0.0120192309841513,0,0.0120192309841513,0,1e-07,0
120,1e-07,0,0.0120192309841513,0,0.0120192309841513,0,-0.0048076924867928,0,-0.0048076924867928,0,0.0120192309841513,0,1e-07,0,-0.0480769239366054,0,0.0120192309841513,0,0.0120192309841513,0,0.0120192309841513,0,1e-07,0
121,1e-07,0,0.0120192309841513,0,0.0120192309841513,0,-0.0048076924867928,0,-0.0048076924867928,0,0.0120192309841513,0,1e-07,0,-0.0480769239366054,0,0.0120192309841513,0,0.0120192309841513,0,0.0120192309841513,0,1e-07,0
122,1e-07,0,1e-07,0,1e-07,0,1e-07,0,1e-07,0,1e-07,0,1e-07,0,-0.0240384619683027,0,0.0120192309841513,0,0.0120192309841513,0,1e-07,0,1e-07,0
123,1e-07,0,1e-07,0,1e-07,0,1e-07,0,1e-07,0,1e-07,0,1e-07,0,-0.0240384619683027,0,0.0120192309841513,0,0.0120192309841513,0,1e-07,0,1e-07,0
124,1e-07,0,1e-07,0,1e-07,0,1e-07,0,1e-07,0,1e-07,0,0.0120192309841513,0,-0.060096152126789,0,0.0120192309841513,0,0.0120192309841513,0,0.0240384619683027,0,1e-07,0
125,1e-07,0,1e-07,0,1e-07,0,1e-07,0,1e-07,0,1e-07,0,0.0120192309841513,0,-0.060096152126789,0,0.0120192309841513,0,0.0120192309841513,0,0.0240384619683027,0,1e-07,0
126,1e-07,0,-0.0120192309841513,0,-0.0120192309841513,0,0.0048076924867928,0,0.0048076924867928,0,-0.0120192309841513,0,0.0120192309841513,0,0.0360576920211315,0,0.0120192309841513,0,0.0120192309841513,0,0.0240384619683027,0,0.0120192309841513,0
127,1e-07,0,-0.0120192309841513,0,-0.0120192309841513,0,0.0048076924867928,0,0.0048076924867928,0,-0.0120192309841513,0,0.0120192309841513,0,0.0360576920211315,0,0.0120192309841513,0,0.0120192309841513,0,0.0240384619683027,0,0.0120192309841513,0
128,1e-07,0,-0.0120192309841513,0,-0.0120192309841513,0,0.0048076924867928,0,0.0048076924867928,0,-0.0120192309841513,0,0.0120192309841513,0,0.0240384619683027,0,1e-07,0,0.0120192309841513,0,0.0120192309841513,0,1e-07,0
129,1e-07,0,-0.0120192309841513,0,-0.0120192309841513,0,0.0048076924867928,0,0.0048076924867928,0,-0.0120192309841513,0,0.0120192309841513,0,0.0240384619683027,0,1e-07,0,0.0120192309841513,0,0.0120192309841513,0,1e-07,0
130,1e-07,0,1e-07,0,1e-07,0,1e-07,0,1e-07,0,1e-07,0,1e-07,0,-0.0360576920211315,0,1e-07,0,1e-07,0,0.0120192309841513,0,1e-07,0
131,1e-07,0,1e-07,0,1e-07,0,1e-07,0,1e-07,0,1e-07,0,1e-07,0,-0.0360576920211315,0,1e-07,0,1e-07,0,0.0120192309841513,0,1e-07,0
132,1e-07,0,0.0120192309841513,0,0.0120192309841513,0,-0.0048076924867928,0,-0.0048076924867928,0,0.0120192309841513,0,1e-07,0,0.0240384619683027,0,-0.0120192309841513,0,1e-07,0,1e-07,0,-0.0120192309841513,0
133,1e-07,0,0.0120192309841513,0,0.0120192309841513,0,-0.0048076924867928,0,-0.0048076924867928,0,0.0120192309841513,0,1e-07,0,0.0240384619683027,0,-0.0120192309841513,0,1e-07,0,1e-07,0,-0.0120192309841513,0
134,1e-07,0,0.0120192309841513,0,0.0120192309841513,0,-0.0048076924867928,0,-0.0048076924867928,0,0.0120192309841513,0,1e-07,0,1e-07,0,1e-07,0,1e-07,0,1e-07,0,-0.0120192309841513,0
135,1e-07,0,0.0120192309841513,0,0.0120192309841513,0,-0.0048076924867928,0,-0.0048076924867928,0,0.0120192309841513,0,1e-07,0,1e-07,0,1e-07,0,1e-07,0,1e-07,0,-0.0120192309841513,0
136,1e-07,0,1e-07,0,1e-07,0,1e-07,0,1e-07,0,1e-07,0,1e-07,0,-0.0240384619683027,0,1e-07,0,1e-07,0,1e-07,0,-0.0120192309841513,0
137,1e-07,0,1e-07,0,1e-07,0,1e-07,0,1e-07,0,1e-07,0,1e-07,0,-0.0240384619683027,0,1e-07,0,1e-07,0,1e-07,0,-0.0120192309841513,0
138,1e-07,0,-0.0120192309841513,0,-0.0120192309841513,0,0.0048076924867928,0,0.0048076924867928,0,-0.0120192309841513,0,0.0120192309841513,0,0.0360576920211315,0,1e-07,0,1e-07,0,1e-07,0,1e-07,0
139,1e-07,0,-0.0120192309841513,0,-0.0120192309841513,0,0.0048076924867928,0,0.0048076924867928,0,-0.0120192309841513,0,0.0120192309841513,0,0.0360576920211315,0,1e-07,0,1e-07,0,1e-07,0,1e-07,0
140,1e-07,0,-0.0240384619683027,0,-0.0240384619683027,0,0.0120192309841513,0,0.0120192309841513,0,-0.0240384619683027,0,0.0120192309841513,0,-0.0360576920211315,0,1e-07,0,1e-07,0,1e-07,0,1e-07,0
141,1e-07,0,-0.0240384619683027,0,-0.0240384619683027,0,0.0120192309841513,0,0.0120192309841513,0,-0.0240384619683027,0,0.0120192309841513,0,-0.0360576920211315,0,1e-07,0,1e-07,0,1e-07,0,1e-07,0
142,1e-07,0,-0.0120192309841513,0,-0.0120192309841513,0,0.0048076924867928,0,0.0048076924867928,0,-0.0120192309841513,0,0.0120192309841513,0,0.0120192309841513,0,1e-07,0,1e-07,0,1e-07,0,1e-07,0
143,1e-07,0,-0.0120192309841513,0,-0.0120192309841513,0,0.0048076924867928,0,0.0048076924867928,0,-0.0120192309841513,0,0.0120192309841513,0,0.0120192309841513,0,1e-07,0,1e-07,0,1e-07,0,1e-07,0
144,1e-07,0,-0.0120192309841513,0,-0.0120192309841513,0,0.0048076924867928,0,0.0048076924867928,0,-0.0120192309841513,0,0.0120192309841513,0,1e-07,0,-0.0120192309841513,0,1e-07,0,1e-07,0,1e-07,0
145,1e-07,0,-0.0120192309841513,0,-0.0120192309841513,0,0.0048076924867928,0,0.0048076924867928,0,-0.0120192309841513,0,0.0120192309841513,0,1e-07,0,-0.0120192309841513,0,1e-07,0,1e-07,0,1e-07,0
146,1e-07,0,-0.0120192309841513,0,-0.0120192309841513,0,0.0048076924867928,0,0.0048076924867928,0,-0.0120192309841513,0,0.0120192309841513,0,-0.0360576920211315,0,-0.0120192309841513,0,1e-07,0,0.0120192309841513,0,1e-07,0
147,1e-07,0,-0.0120192309841513,0,-0.0120192309841513,0,0.0048076924867928,0,0.0048076924867928,0,-0.0120192309841513,0,0.0120192309841513,0,-0.0360576920211315,0,-0.0120192309841513,0,1e-07,0,0.0120192309841513,0,1e-07,0
148,1e-07,0,-0.0120192309841513,0,-0.0120192309841513,0,0.0048076924867928,0,0.0048076924867928,0,-0.0120192309841513,0,0.0120192309841513,0,0.0360576920211315,0,-0.0120192309841513,0,1e-07,0,0.0120192309841513,0,1e-07,0
149,1e-07,0,-0.0120192309841513,0,-0.0120192309841513,0,0.0048076924867928,0,0.0048076924867928,0,-0.0120192309841513,0,0.0120192309841513,0,0.0360576920211315,0,-0.0120192309841513,0,1e-07,0,0.0120192309841513,0,1e-07,0
150,1e-07,0,-0.0120192309841513,0,-0.0120192309841513,0,0.0048076924867928,0,0.0048076924867928,0,-0.0120192309841513,0,0.0120192309841513,0,-0.060096152126789,0,-0.0120192309841513,0,-0.0120192309841513,0,0.0120192309841513,0,-0.0120192309841513,0
151,1e-07,0,-0.0120192309841513,0,-0.0120192309841513,0,0.0048076924867928,0,0.0048076924867928,0,-0.0120192309841513,0,0.0120192309841513,0,-0.060096152126789,0,-0.0120192309841513,0,-0.0120192309841513,0,0.0120192309841513,0,-0.0120192309841513,0
152,1e-07,0,-0.0120192309841513,0,-0.0120192309841513,0,0.0048076924867928,0,0.0048076924867928,0,-0.0120192309841513,0,1e-07,0,0.0120192309841513,0,-0.0120192309841513,0,-0.0120192309841513,0,1e-07,0,-0.0120192309841513,0
153,1e-07,0,-0.0120192309841513,0,-0.0120192309841513,0,0.0048076924867928,0,0.0048076924867928,0,-0.0120192309841513,0,1e-07,0,0.0120192309841513,0,-0.0120192309841513,0,-0.0120192309841513,0,1e-07,0,-0.0120192309841513,0
154,1e-07,0,-0.0120192309841513,0,-0.0120192309841513,0,0.0048076924867928,0,0.0048076924867928,0,-0.0120192309841513,0,1e-07,0,-0.0240384619683027,0,-0.0120192309841513,0,-0.0120192309841513,0,1e-07,0,-0.0120192309841513,0
155,1e-07,0,-0.0120192309841513,0,-0.0120192309841513,0,0.0048076924867928,0,0.0048076924867928,0,-0.0120192309841513,0,1e-07,0,-0.0240384619683027,0,-0.0120192309841513,0,-0.0120192309841513,0,1e-07,0,-0.0120192309841513,0
156,1e-07,0,-0.0240384619683027,0,-0.0240384619683027,0,0.0120192309841513,0,0.0120192309841513,0,-0.0240384619683027,0,1e-07,0,-0.0240384619683027,0,-0.0120192309841513,0,-0.0120192309841513,0,1e-07,0,-0.0120192309841513,0
157,1e-07,0,-0.0240384619683027,0,-0.0240384619683027,0,0.0120192309841513,0,0.0120192309841513,0,-0.0240384619683027,0,1e-07,0,-0.0240384619683027,0,-0.0120192309841513,0,-0.0120192309841513,0,1e-07,0,-0.0120192309841513,0
158,1e-07,0,1e-07,0,1e-07,0,1e-07,0,1e-07,0,1e-07,0,1e-07,0,-0.0240384619683027,0,-0.0120192309841513,0,-0.0120192309841513,0,1e-07,0,-0.0240384619683027,0
159,1e-07,0,1e-07,0,1e-07,0,1e-07,0,1e-07,0,1e-07,0,1e-07,0,-0.0240384619683027,0,-0.0120192309841513,0,-0.0120192309841513,0,1e-07,0,-0.0240384619683027,0
160,1e-07,0,1e-07,0,1e-07,0,1e-07,0,1e-07,0,1e-07,0,1e-07,0,0.0360576920211315,0,-0.0240384619683027,0,-0.0120192309841513,0,-0.0120192309841513,0,-0.0240384619683027,0
161,1e-07,0,1e-07,0,1e-07,0,1e-07,0,1e-07,0,1e-07,0,1e-07,0,0.0360576920211315,0,-0.0240384619683027,0,-0.0120192309841513,0,-0.0120192309841513,0,-0.0240384619683027,0
162,1e-07,0,-0.0120192309841513,0,-0.0120192309841513,0,0.0048076924867928,0,0.0048076924867928,0,-0.0120192309841513,0,-0.0120192309841513,0,-0.0240384619683027,0,-0.0240384619683027,0,-0.0240384619683027,0,-0.0120192309841513,0,-0.0240384619683027,0
163,1e-07,0,-0.0120192309841513,0,-0.0120192309841513,0,0.0048076924867928,0,0.0048076924867928,0,-0.0120192309841513,0,-0.0120192309841513,0,-0.0240384619683027,0,-0.0240384619683027,0,-0.0240384619683027,0,-0.0120192309841513,0,-0.0240384619683027,0
164,1e-07,0,-0.0120192309841513,0,-0.0120192309841513,0,0.0048076924867928,0,0.0048076924867928,0,-0.0120192309841513,0,-0.0120192309841513,0,0.0480769239366054,0,-0.0120192309841513,0,-0.0120192309841513,0,1e-07,0,-0.0120192309841513,0
165,1e-07,0,-0.0120192309841513,0,-0.0120192309841513,0,0.0048076924867928,0,0.0048076924867928,0,-0.0120192309841513,0,-0.0120192309841513,0,0.0480769239366054,0,-0.0120192309841513,0,-0.0120192309841513,0,1e-07,0,-0.0120192309841513,0
166,1e-07,0,-0.0120192309841513,0,-0.0120192309841513,0,0.0048076924867928,0,0.0048076924867928,0,-0.0120192309841513,0,-0.0120192309841513,0,0.0360576920211315,0,-0.0240384619683027,0,-0.0120192309841513,0,1e-07,0,-0.0120192309841513,0
167,1e-07,0,-0.0120192309841513,0,-0.0120192309841513,0,0.0048076924867928,0,0.0048076924867928,0,-0.0120192309841513,0,-0.0120192309841513,0,0.0360576920211315,0,-0.0240384619683027,0,-0.0120192309841513,0,1e-07,0,-0.0120192309841513,0
168,1e-07,0,1e-07,0,1e-07,0,1e-07,0,1e-07,0,1e-07,0,-0.0120192309841513,0,1e-07,0,-0.0240384619683027,0,-0.0120192309841513,0,1e-07,0,-0.0120192309841513,0
169,1e-07,0,1e-07,0,1e-07,0,1e-07,0,1e-07,0,1e-07,0,-0.0120192309841513,0,1e-07,0,-0.0240384619683027,0,-0.0120192309841513,0,1e-07,0,-0.0120192309841513,0
170,1e-07,0,1e-07,0,1e-07,0,1e-07,0,1e-07,0,1e-07,0,-0.0120192309841513,0,0.0480769239366054,0,-0.0240384619683027,0,-0.0120192309841513,0,-0.0120192309841513,0,-0.0240384619683027,0
171,1e-07,0,1e-07,0,1e-07,0,1e-07,0,1e-07,0,1e-07,0,-0.0120192309841513,0,0.0480769239366054,0,-0.0240384619683027,0,-0.0120192309841513,0,-0.0120192309841513,0,-0.0240384619683027,0
172,1e-07,0,0.0120192309841513,0,0.0120192309841513,0,-0.0048076924867928,0,-0.0048076924867928,0,0.0120192309841513,0,-0.0120192309841513,0,1e-07,0,-0.0120192309841513,0,1e-07,0,-0.0120192309841513,0,-0.0120192309841513,0
173,1e-07,0,0.0120192309841513,0,0.0120192309841513,0,-0.0048076924867928,0,-0.0048076924867928,0,0.0120192309841513,0,-0.0120192309841513,0,1e-07,0,-0.0120192309841513,0,1e-07,0,-0.0120192309841513,0,-0.0120192309841513,0
174,1e-07,0,1e-07,0,1e-07,0,1e-07,0,1e-07,0,1e-07,0,-0.0120192309841513,0,-0.0480769239366054,0,-0.0120192309841513,0,1e-07,0,-0.0120192309841513,0,1e-07,0
175,1e-07,0,1e-07,0,1e-07,0,1e-07,0,1e-07,0,1e-07,0,-0.0120192309841513,0,-0.0480769239366054,0,-0.0120192309841513,0,1e-07,0,-0.0120192309841513,0,1e-07,0
176,1e-07,0,-0.0120192309841513,0,-0.0120192309841513,0,0.0048076924867928,0,0.0048076924867928,0,-0.0120192309841513,0,1e-07,0,0.0120192309841513,0,1e-07,0,1e-07,0,1e-07,0,-0.0120192309841513,0
177,1e-07,0,-0.0120192309841513,0,-0.0120192309841513,0,0.0048076924867928,0,0.0048076924867928,0,-0.0120192309841513,0,1e-07,0,0.0120192309841513,0,1e-07,0,1e-07,0,1e-07,0,-0.0120192309841513,0
178,1e-07,0,-0.0120192309841513,0,-0.0120192309841513,0,0.0048076924867928,0,0.0048076924867928,0,-0.0120192309841513,0,1e-07,0,-0.0120192309841513,0,-0.0120192309841513,0,1e-07,0,1e-07,0,-0.0120192309841513,0
179,1e-07,0,-0.0120192309841513,0,-0.0120192309841513,0,0.0048076924867928,0,0.0048076924867928,0,-0.0120192309841513,0,1e-07,0,-0.0120192309841513,0,-0.0120192309841513,0,1e-07,0,1e-07,0,-0.0120192309841513,0
180,1e-07,0,-0.0120192309841513,0,-0.0120192309841513,0,0.0048076924867928,0,0.0048076924867928,0,-0.0120192309841513,0,1e-07,0,0.0120192309841513,0,1e-07,0,1e-07,0,1e-07,0,1e-07,0
181,1e-07,0,-0.0120192309841513,0,-0.0120192309841513,0,0.0048076924867928,0,0.0048076924867928,0,-0.0120192309841513,0,1e-07,0,0.0120192309841513,0,1e-07,0,1e-07,0,1e-07,0,1e-07,0
182,1e-07,0,1e-07,0,1e-07,0,1e-07,0,1e-07,0,1e-07,0,1e-07,0,0.0120192309841513,0,-0.0120192309841513,0,1e-07,0,-0.0120192309841513,0,-0.0120192309841513,0
183,1e-07,0,1e-07,0,1e-07,0,1e-07,0,1e-07,0,1e-07,0,1e-07,0,0.0120192309841513,0,-0.0120192309841513,0,1e-07,0,-0.0120192309841513,0,-0.0120192309841513,0
184,1e-07,0,1e-07,0,1e-07,0,1e-07,0,1e-07,0,1e-07,0,-0.0120192309841513,0,-0.0480769239366054,0,-0.0120192309841513,0,1e-07,0,-0.0120192309841513,0,-0.0120192309841513,0
185,1e-07,0,1e-07,0,1e-07,0,1e-07,0,1e-07,0,1e-07,0,-0.0120192309841513,0,-0.0480769239366054,0,-0.0120192309841513,0,1e-07,0,-0.0120192309841513,0,-0.0120192309841513,0
186,1e-07,0,1e-07,0,1e-07,0,1e-07,0,1e-07,0,1e-07,0,-0.0120192309841513,0,-0.0480769239366054,0,-0.0120192309841513,0,-0.0120192309841513,0,-0.0120192309841513,0,-0.0120192309841513,0
187,1e-07,0,1e-07,0,1e-07,0,1e-07,0,1e-07,0,1e-07,0,-0.0120192309841513,0,-0.0480769239366054,0,-0.0120192309841513,0,-0.0120192309841513,0,-0.0120192309841513,0,-0.0120192309841513,0
188,1e-07,0,0.0120192309841513,0,0.0120192309841513,0,-0.0048076924867928,0,-0.0048076924867928,0,0.0120192309841513,0,-0.0120192309841513,0,-0.060096152126789,0,-0.0120192309841513,0,-0.0120192309841513,0,-0.0120192309841513,0,-0.0120192309841513,0
189,1e-07,0,0.0120192309841513,0,0.0120192309841513,0,-0.0048076924867928,0,-0.0048076924867928,0,0.0120192309841513,0,-0.0120192309841513,0,-0.060096152126789,0,-0.0120192309841513,0,-0.0120192309841513,0,-0.0120192309841513,0,-0.0120192309841513,0
190,1e-07,0,1e-07,0,1e-07,0,1e-07,0,1e-07,0,1e-07,0,-0.0120192309841513,0,-0.0480769239366054,0,-0.0120192309841513,0,-0.0120192309841513,0,-0.0120192309841513,0,-0.0120192309841513,0
191,1e-07,0,1e-07,0,1e-07,0,1e-07,0,1e-07,0,1e-07,0,-0.0120192309841513,0,-0.0480769239366054,0,-0.0120192309841513,0,-0.0120192309841513,0,-0.0120192309841513,0,-0.0120192309841513,0
192,1e-07,0,1e-07,0,1e-07,0,1e-07,0,1e-07,0,1e-07,0,-0.0120192309841513,0,0.0240384619683027,0,-0.0120192309841513,0,1e-07,0,1e-07,0,-0.0120192309841513,0
193,1e-07,0,1e-07,0,1e-07,0,1e-07,0,1e-07,0,1e-07,0,-0.0120192309841513,0,0.0240384619683027,0,-0.0120192309841513,0,1e-07,0,1e-07,0,-0.0120192309841513,0
194,1e-07,0,1e-07,0,1e-07,0,1e-07,0,1e-07,0,1e-07,0,-0.0120192309841513,0,0.0480769239366054,0,-0.0120192309841513,0,-0.0120192309841513,0,-0.0120192309841513,0,-0.0120192309841513,0
195,1e-07,0,1e-07,0,1e-07,0,1e-07,0,1e-07,0,1e-07,0,-0.0120192309841513,0,0.0480769239366054,0,-0.0120192309841513,0,-0.0120192309841513,0,-0.0120192309841513,0,-0.0120192309841513,0
196,1e-07,0,-0.0120192309841513,0,-0.0120192309841513,0,0.0048076924867928,0,0.0048076924867928,0,-0.0120192309841513,0,1e-07,0,-0.060096152126789,0,-0.0120192309841513,0,1e-07,0,-0.0120192309841513,0,-0.0120192309841513,0
197,1e-07,0,-0.0120192309841513,0,-0.0120192309841513,0,0.0048076924867928,0,0.0048076924867928,0,-0.0120192309841513,0,1e-07,0,-0.060096152126789,0,-0.0120192309841513,0,1e-07,0,-0.0120192309841513,0,-0.0120192309841513,0
198,1e-07,0,-0.0120192309841513,0,-0.0120192309841513,0,0.0048076924867928,0,0.0048076924867928,0,-0.0120192309841513,0,1e-07,0,-0.0360576920211315,0,-0.0120192309841513,0,1e-07,0,-0.0120192309841513,0,-0.0120192309841513,0
199,1e-07,0,-0.0120192309841513,0,-0.0120192309841513,0,0.0048076924867928,0,0.0048076924867928,0,-0.0120192309841513,0,1e-07,0,-0.0360576920211315,0,-0.0120192309841513,0,1e-07,0,-0.0120192309841513,0,-0.0120192309841513,0
200,1e-07,0,1e-07,0,1e-07,0,1e-07,0,1e-07,0,1e-07,0,1e-07,0,1e-07,0,-0.0120192309841513,0,-0.0120192309841513,0,-0.0120192309841513,0,-0.0120192309841513,0
201,1e-07,0,1e-07,0,1e-07,0,1e-07,0,1e-07,0,1e-07,0,1e-07,0,1e-07,0,-0.0120192309841513,0,-0.0120192309841513,0,-0.0120192309841513,0,-0.0120192309841513,0
202,1e-07,0,1e-07,0,1e-07,0,1e-07,0,1e-07,0,1e-07,0,-0.0120192309841513,0,-0.0360576920211315,0,-0.0120192309841513,0,-0.0120192309841513,0,-0.0120192309841513,0,-0.0120192309841513,0
203,1e-07,0,1e-07,0,1e-07,0,1e-07,0,1e-07,0,1e-07,0,-0.0120192309841513,0,-0.0360576920211315,0,-0.0120192309841513,0,-0.0120192309841513,0,-0.0120192309841513,0,-0.0120192309841513,0
204,1e-07,0,1e-07,0,1e-07,0,1e-07,0,1e-07,0,1e-07,0,-0.0120192309841513,0,0.0120192309841513,0,-0.0120192309841513,0,-0.0120192309841513,0,-0.0120192309841513,0,-0.0120192309841513,0
205,1e-07,0,1e-07,0,1e-07,0,1e-07,0,1e-07,0,1e-07,0,-0.0120192309841513,0,0.0120192309841513,0,-0.0120192309841513,0,-0.0120192309841513,0,-0.0120192309841513,0,-0.0120192309841513,0
206,1e-07,0,1e-07,0,1e-07,0,1e-07,0,1e-07,0,1e-07,0,-0.0120192309841513,0,1e-07,0,-0.0120192309841513,0,-0.0120192309841513,0,-0.0120192309841513,0,-0.0120192309841513,0
207,1e-07,0,1e-07,0,1e-07,0,1e-07,0,1e-07,0,1e-07,0,-0.0120192309841513,0,1e-07,0,-0.0120192309841513,0,-0.0120192309841513,0,-0.0120192309841513,0,-0.0120192309841513,0
208,1e-07,0,1e-07,0,1e-07,0,1e-07,0,1e-07,0,1e-07,0,1e-07,0,-0.0360576920211315,0,-0.0120192309841513,0,1e-07,0,-0.0120192309841513,0,-0.0120192309841513,0
209,1e-07,0,1e-07,0,1e-07,0,1e-07,0,1e-07,0,1e-07,0,1e-07,0,-0.0360576920211315,0,-0.0120192309841513,0,1e-07,0,-0.0120192309841513,0,-0.0120192309841513,0
210,1e-07,0,1e-07,0,1e-07,0,1e-07,0,1e-07,0,1e-07,0,1e-07,0,1e-07,0,-0.0120192309841513,0,-0.0120192309841513,0,-0.0120192309841513,0,-0.0120192309841513,0
211,1e-07,0,1e-07,0,1e-07,0,1e-07,0,1e-07,0,1e-07,0,1e-07,0,1e-07,0,-0.0120192309841513,0,-0.0120192309841513,0,-0.0120192309841513,0,-0.0120192309841513,0
212,1e-07,0,1e-07,0,1e-07,0,1e-07,0,1e-07,0,1e-07,0,1e-07,0,-0.0480769239366054,0,-0.0120192309841513,0,-0.0120192309841513,0,-0.0240384619683027,0,-0.0240384619683027,0
213,1e-07,0,1e-07,0,1e-07,0,1e-07,0,1e-07,0,1e-07,0,1e-07,0,-0.0480769239366054,0,-0.0120192309841513,0,-0.0120192309841513,0,-0.0240384619683027,0,-0.0240384619683027,0
214,1e-07,0,0.0120192309841513,0,0.0120192309841513,0,-0.0048076924867928,0,-0.0048076924867928,0,0.0120192309841513,0,-0.0120192309841513,0,-0.0120192309841513,0,-0.0240384619683027,0,-0.0120192309841513,0,-0.0240384619683027,0,-0.0240384619683027,0
215,1e-07,0,0.0120192309841513,0,0.0120192309841513,0,-0.0048076924867928,0,-0.0048076924867928,0,0.0120192309841513,0,-0.0120192309841513,0,-0.0120192309841513,0,-0.0240384619683027,0,-0.0120192309841513,0,-0.0240384619683027,0,-0.0240384619683027,0
216,1e-07,0,0.0120192309841513,0,0.0120192309841513,0,-0.0048076924867928,0,-0.0048076924867928,0,0.0120192309841513,0,-0.0120192309841513,0,0.0240384619683027,0,-0.0240384619683027,0,-0.0120192309841513,0,-0.0240384619683027,0,-0.0120192309841513,0
217,1e-07,0,0.0120192309841513,0,0.0120192309841513,0,-0.0048076924867928,0,-0.0048076924867928,0,0.0120192309841513,0,-0.0120192309841513,0,0.0240384619683027,0,-0.0240384619683027,0,-0.0120192309841513,0,-0.0240384619683027,0,-0.0120192309841513,0
218,1e-07,0,1e-07,0,1e-07,0,1e-07,0,1e-07,0,1e-07,0,1e-07,0,0.0360576920211315,0,-0.0240384619683027,0,-0.0120192309841513,0,-0.0120192309841513,0,-0.0120192309841513,0
219,1e-07,0,1e-07,0,1e-07,0,1e-07,0,1e-07,0,1e-07,0,1e-07,0,0.0360576920211315,0,-0.0240384619683027,0,-0.0120192309841513,0,-0.0120192309841513,0,-0.0120192309841513,0
220,1e-07,0,1e-07,0,1e-07,0,1e-07,0,1e-07,0,1e-07,0,1e-07,0,1e-07,0,-0.0120192309841513,0,1e-07,0,-0.0120192309841513,0,-0.0120192309841513,0
221,1e-07,0,1e-07,0,1e-07,0,1e-07,0,1e-07,0,1e-07,0,1e-07,0,1e-07,0,-0.0120192309841513,0,1e-07,0,-0.0120192309841513,0,-0.0120192309841513,0
222,1e-07,0,-0.0120192309841513,0,-0.0120192309841513,0,0.0048076924867928,0,0.0048076924867928,0,-0.0120192309841513,0,1e-07,0,0.0480769239366054,0,-0.0120192309841513,0,1e-07,0,-0.0120192309841513,0,1e-07,0
223,1e-07,0,-0.0120192309841513,0,-0.0120192309841513,0,0.0048076924867928,0,0.0048076924867928,0,-0.0120192309841513,0,1e-07,0,0.0480769239366054,0,-0.0120192309841513,0,1e-07,0,-0.0120192309841513,0,1e-07,0
224,1e-07,0,1e-07,0,1e-07,0,1e-07,0,1e-07,0,1e-07,0,1e-07,0,-0.060096152126789,0,-0.0240384619683027,0,-0.0120192309841513,0,-0.0120192309841513,0,-0.0120192309841513,0
225,1e-07,0,1e-07,0,1e-07,0,1e-07,0,1e-07,0,1e-07,0,1e-07,0,-0.060096152126789,0,-0.0240384619683027,0,-0.0120192309841513,0,-0.0120192309841513,0,-0.0120192309841513,0
226,-0.0120192309841513,0,1e-07,0,0.0120192309841513,0,0.0048076924867928,0,-0.0120192309841513,0,0.0048076924867928,0,1e-07,0,-0.060096152126789,0,-0.0240384619683027,0,-0.0120192309841513,0,-0.0120192309841513,0,-0.0120192309841513,0
227,-0.0120192309841513,0,1e-07,0,0.0120192309841513,0,0.0048076924867928,0,-0.0120192309841513,0,0.0048076924867928,0,1e-07,0,-0.060096152126789,0,-0.0240384619683027,0,-0.0120192309841513,0,-0.0120192309841513,0,-0.0120192309841513,0
228,1e-07,0,0.0120192309841513,0,0.0120192309841513,0,-0.0048076924867928,0,-0.0048076924867928,0,0.0120192309841513,0,1e-07,0,0.0120192309841513,0,-0.0120192309841513,0,-0.0120192309841513,0,-0.0240384619683027,0,-0.0240384619683027,0
229,1e-07,0,0.0120192309841513,0,0.0120192309841513,0,-0.0048076924867928,0,-0.0048076924867928,0,0.0120192309841513,0,1e-07,0,0.0120192309841513,0,-0.0120192309841513,0,-0.0120192309841513,0,-0.0240384619683027,0,-0.0240384619683027,0
230,1e-07,0,1e-07,0,1e-07,0,1e-07,0,1e-07,0,1e-07,0,1e-07,0,-0.0120192309841513,0,-0.0120192309841513,0,-0.0120192309841513,0,-0.0240384619683027,0,-0.0240384619683027,0
231,1e-07,0,1e-07,0,1e-07,0,1e-07,0,1e-07,0,1e-07,0,1e-07,0,-0.0120192309841513,0,-0.0120192309841513,0,-0.0120192309841513,0,-0.0240384619683027,0,-0.0240384619683027,0
232,1e-07,0,-0.0120192309841513,0,-0.0120192309841513,0,0.0048076924867928,0,0.0048076924867928,0,-0.0120192309841513,0,1e-07,0,-0.0120192309841513,0,-0.0120192309841513,0,-0.0120192309841513,0,-0.0120192309841513,0,-0.0120192309841513,0
233,1e-07,0,-0.0120192309841513,0,-0.0120192309841513,0,0.0048076924867928,0,0.0048076924867928,0,-0.0120192309841513,0,1e-07,0,-0.0120192309841513,0,-0.0120192309841513,0,-0.0120192309841513,0,-0.0120192309841513,0,-0.0120192309841513,0
234,1e-07,0,1e-07,0,1e-07,0,1e-07,0,1e-07,0,1e-07,0,1e-07,0,0.0120192309841513,0,-0.0120192309841513,0,-0.0120192309841513,0,-0.0120192309841513,0,-0.0120192309841513,0
235,1e-07,0,1e-07,0,1e-07,0,1e-07,0,1e-07,0,1e-07,0,1e-07,0,0.0120192309841513,0,-0.0120192309841513,0,-0.0120192309841513,0,-0.0120192309841513,0,-0.0120192309841513,0
236,1e-07,0,1e-07,0,1e-07,0,1e-07,0,1e-07,0,1e-07,0,-0.0120192309841513,0,-0.0120192309841513,0,-0.0120192309841513,0,-0.0120192309841513,0,-0.0120192309841513,0,-0.0120192309841513,0
237,1e-07,0,1e-07,0,1e-07,0,1e-07,0,1e-07,0,1e-07,0,-0.0120192309841513,0,-0.0120192309841513,0,-0.0120192309841513,0,-0.0120192309841513,0,-0.0120192309841513,0,-0.0120192309841513,0
238,1e-07,0,1e-07,0,1e-07,0,1e-07,0,1e-07,0,1e-07,0,1e-07,0,0.0120192309841513,0,-0.0120192309841513,0,-0.0120192309841513,0,-0.0120192309841513,0,-0.0120192309841513,0
239,1e-07,0,1e-07,0,1e-07,0,1e-07,0,1e-07,0,1e-07,0,1e-07,0,0.0120192309841513,0,-0.0120192309841513,0,-0.0120192309841513,0,-0.0120192309841513,0,-0.0120192309841513,0
240,1e-07,0,-0.0120192309841513,0,-0.0120192309841513,0,0.0048076924867928,0,0.0048076924867928,0,-0.0120192309841513,0,1e-07,0,-0.0240384619683027,0,-0.0240384619683027,0,-0.0120192309841513,0,-0.0120192309841513,0,-0.0120192309841513,0
241,1e-07,0,-0.0120192309841513,0,-0.0120192309841513,0,0.0048076924867928,0,0.0048076924867928,0,-0.0120192309841513,0,1e-07,0,-0.0240384619683027,0,-0.0240384619683027,0,-0.0120192309841513,0,-0.0120192309841513,0,-0.0120192309841513,0
242,1e-07,0,-0.0120192309841513,0,-0.0120192309841513,0,0.0048076924867928,0,0.0048076924867928,0,-0.0120192309841513,0,-0.0120192309841513,0,0.0120192309841513,0,-0.0240384619683027,0,-0.0120192309841513,0,-0.0120192309841513,0,-0.0120192309841513,0
243,1e-07,0,-0.0120192309841513,0,-0.0120192309841513,0,0.0048076924867928,0,0.0048076924867928,0,-0.0120192309841513,0,-0.0120192309841513,0,0.0120192309841513,0,-0.0240384619683027,0,-0.0120192309841513,0,-0.0120192309841513,0,-0.0120192309841513,0
244,1e-07,0,1e-07,0,1e-07,0,1e-07,0,1e-07,0,1e-07,0,-0.0120192309841513,0,-0.0480769239366054,0,-0.0240384619683027,0,-0.0120192309841513,0,-0.0120192309841513,0,-0.0120192309841513,0
245,1e-07,0,1e-07,0,1e-07,0,1e-07,0,1e-07,0,1e-07,0,-0.0120192309841513,0,-0.0480769239366054,0,-0.0240384619683027,0,-0.0120192309841513,0,-0.0120192309841513,0,-0.0120192309841513,0
246,1e-07,0,0.0120192309841513,0,0.0120192309841513,0,-0.0048076924867928,0,-0.0048076924867928,0,0.0120192309841513,0,-0.0120192309841513,0,-0.060096152126789,0,-0.0120192309841513,0,-0.0120192309841513,0,-0.0120192309841513,0,-0.0120192309841513,0
247,1e-07,0,0.0120192309841513,0,0.0120192309841513,0,-0.0048076924867928,0,-0.0048076924867928,0,0.0120192309841513,0,-0.0120192309841513,0,-0.060096152126789,0,-0.0120192309841513,0,-0.0120192309841513,0,-0.0120192309841513,0,-0.0120192309841513,0
248,1e-07,0,1e-07,0,1e-07,0,1e-07,0,1e-07,0,1e-07,0,1e-07,0,-0.0240384619683027,0,1e-07,0,1e-07,0,1e-07,0,1e-07,0
249,1e-07,0,1e-07,0,1e-07,0,1e-07,0,1e-07,0,1e-07,0,1e-07,0,-0.0240384619683027,0,1e-07,0,1e-07,0,1e-07,0,1e-07,0
250,1e-07,0,0.0120192309841513,0,0.0120192309841513,0,-0.0048076924867928,0,-0.0048076924867928,0,0.0120192309841513,0,0.0120192309841513,0,-0.0360576920211315,0,0.0120192309841513,0,0.0120192309841513,0,1e-07,0,1e-07,0
251,1e-07,0,0.0120192309841513,0,0.0120192309841513,0,-0.0048076924867928,0,-0.0048076924867928,0,0.0120192309841513,0,0.0120192309841513,0,-0.0360576920211315,0,0.0120192309841513,0,0.0120192309841513,0,1e-07,0,1e-07,0
252,0.0120192309841513,0,0.0240384619683027,0,0.0120192309841513,0,-0.0168269239366054,0,1e-07,0,0.0192307699471712,0,0.0240384619683027,0,0.0360576920211315,0,0.0120192309841513,0,1e-07,0,0.0120192309841513,0,1e-07,0
253,0.0120192309841513,0,0.0240384619683027,0,0.0120192309841513,0,-0.0168269239366054,0,1e-07,0,0.0192307699471712,0,0.0240384619683027,0,0.0360576920211315,0,0.0120192309841513,0,1e-07,0,0.0120192309841513,0,1e-07,0
254,0.0120192309841513,0,0.0360576920211315,0,0.0240384619683027,0,-0.0240384619683027,0,-0.0048076924867928,0,0.03125,0,0.0240384619683027,0,-0.060096152126789,0,0.0240384619683027,0,0.0120192309841513,0,0.0120192309841513,0,1e-07,0
255,0.0120192309841513,0,0.0360576920211315,0,0.0240384619683027,0,-0.0240384619683027,0,-0.0048076924867928,0,0.03125,0,0.0240384619683027,0,-0.060096152126789,0,0.0240384619683027,0,0.0120192309841513,0,0.0120192309841513,0,1e-07,0
256,0.0120192309841513,0,0.0480769239366054,0,0.0360576920211315,0,-0.0288461539894342,0,-0.0120192309841513,0,0.0432692319154739,0,0.0120192309841513,0,-0.0480769239366054,0,0.0360576920211315,0,0.0120192309841513,0,0.0120192309841513,0,1e-07,0
257,0.0120192309841513,0,0.0480769239366054,0,0.0360576920211315,0,-0.0288461539894342,0,-0.0120192309841513,0,0.0432692319154739,0,0.0120192309841513,0,-0.0480769239366054,0,0.0360576920211315,0,0.0120192309841513,0,0.0120192309841513,0,1e-07,0
258,0.0240384619683027,0,0.060096152126789,0,0.0360576920211315,0,-0.040865384042263,0,-0.0048076924867928,0,0.0480769239366054,0,0.0120192309841513,0,0.0360576920211315,0,0.0360576920211315,0,0.0240384619683027,0,0.0240384619683027,0,1e-07,0
259,0.0240384619683027,0,0.060096152126789,0,0.0360576920211315,0,-0.040865384042263,0,-0.0048076924867928,0,0.0480769239366054,0,0.0120192309841513,0,0.0360576920211315,0,0.0360576920211315,0,0.0240384619683027,0,0.0240384619683027,0,1e-07,0
260,0.0240384619683027,0,0.072115384042263,0,0.0480769239366054,0,-0.0480769239366054,0,-0.0120192309841513,0,0.060096152126789,0,1e-07,0,0.0120192309841513,0,0.0360576920211315,0,0.0240384619683027,0,0.0240384619683027,0,0.0120192309841513,0
261,0.0240384619683027,0,0.072115384042263,0,0.0480769239366054,0,-0.0480769239366054,0,-0.0120192309841513,0,0.060096152126789,0,1e-07,0,0.0120192309841513,0,0.0360576920211315,0,0.0240384619683027,0,0.0240384619683027,0,0.0120192309841513,0
262,0.0240384619683027,0,0.0480769239366054,0,0.0240384619683027,0,-0.0360576920211315,0,1e-07,0,0.0360576920211315,0,0.0120192309841513,0,-0.0480769239366054,0,0.0240384619683027,0,0.0120192309841513,0,0.0120192309841513,0,1e-07,0
263,0.0240384619683027,0,0.0480769239366054,0,0.0240384619683027,0,-0.0360576920211315,0,1e-07,0,0.0360576920211315,0,0.0120192309841513,0,-0.0480769239366054,0,0.0240384619683027,0,0.0120192309841513,0,0.0120192309841513,0,1e-07,0
264,0.0240384619683027,0,0.0360576920211315,0,0.0120192309841513,0,-0.0288461539894342,0,0.0072115384973585,0,0.0240384619683027,0,0.0120192309841513,0,-0.0360576920211315,0,0.0360576920211315,0,0.0120192309841513,0,0.0120192309841513,0,0.0120192309841513,0
265,0.0240384619683027,0,0.0360576920211315,0,0.0120192309841513,0,-0.0288461539894342,0,0.0072115384973585,0,0.0240384619683027,0,0.0120192309841513,0,-0.0360576920211315,0,0.0360576920211315,0,0.0120192309841513,0,0.0120192309841513,0,0.0120192309841513,0
266,0.0240384619683027,0,0.0360576920211315,0,0.0120192309841513,0,-0.0288461539894342,0,0.0072115384973585,0,0.0240384619683027,0,1e-07,0,0.0480769239366054,0,0.0360576920211315,0,0.0240384619683027,0,0.0240384619683027,0,0.0240384619683027,0
267,0.0240384619683027,0,0.0360576920211315,0,0.0120192309841513,0,-0.0288461539894342,0,0.0072115384973585,0,0.0240384619683027,0,1e-07,0,0.0480769239366054,0,0.0360576920211315,0,0.0240384619683027,0,0.0240384619683027,0,0.0240384619683027,0
268,0.0240384619683027,0,1e-07,0,-0.0240384619683027,0,-0.0120192309841513,0,0.0240384619683027,0,-0.0120192309841513,0,-0.0120192309841513,0,-0.060096152126789,0,0.0240384619683027,0,0.0120192309841513,0,0.0240384619683027,0,0.0240384619683027,0
269,0.0240384619683027,0,1e-07,0,-0.0240384619683027,0,-0.0120192309841513,0,0.0240384619683027,0,-0.0120192309841513,0,-0.0120192309841513,0,-0.060096152126789,0,0.0240384619683027,0,0.0120192309841513,0,0.0240384619683027,0,0.0240384619683027,0
270,0.0240384619683027,0,-0.0240384619683027,0,-0.0480769239366054,0,1e-07,0,0.0360576920211315,0,-0.0360576920211315,0,-0.0120192309841513,0,0.0480769239366054,0,1e-07,0,1e-07,0,0.0120192309841513,0,0.0120192309841513,0
271,0.0240384619683027,0,-0.0240384619683027,0,-0.0480769239366054,0,1e-07,0,0.0360576920211315,0,-0.0360576920211315,0,-0.0120192309841513,0,0.0480769239366054,0,1e-07,0,1e-07,0,0.0120192309841513,0,0.0120192309841513,0
272,0.0120192309841513,0,-0.0240384619683027,0,-0.0360576920211315,0,0.0048076924867928,0,0.0240384619683027,0,-0.0288461539894342,0,-0.0120192309841513,0,0.0240384619683027,0,-0.0120192309841513,0,-0.0120192309841513,0,1e-07,0,1e-07,0
273,0.0120192309841513,0,-0.0240384619683027,0,-0.0360576920211315,0,0.0048076924867928,0,0.0240384619683027,0,-0.0288461539894342,0,-0.0120192309841513,0,0.0240384619683027,0,-0.0120192309841513,0,-0.0120192309841513,0,1e-07,0,1e-07,0
274,0.0120192309841513,0,-0.0240384619683027,0,-0.0360576920211315,0,0.0048076924867928,0,0.0240384619683027,0,-0.0288461539894342,0,-0.0120192309841513,0,-0.060096152126789,0,-0.0240384619683027,0,-0.0120192309841513,0,1e-07,0,1e-07,0
275,0.0120192309841513,0,-0.0240384619683027,0,-0.0360576920211315,0,0.0048076924867928,0,0.0240384619683027,0,-0.0288461539894342,0,-0.0120192309841513,0,-0.060096152126789,0,-0.0240384619683027,0,-0.0120192309841513,0,1e-07,0,1e-07,0
276,0.0120192309841513,0,1e-07,0,-0.0120192309841513,0,-0.0048076924867928,0,0.0120192309841513,0,-0.0048076924867928,0,-0.0120192309841513,0,-0.0480769239366054,0,-0.0120192309841513,0,-0.0120192309841513,0,1e-07,0,1e-07,0
277,0.0120192309841513,0,1e-07,0,-0.0120192309841513,0,-0.0048076924867928,0,0.0120192309841513,0,-0.0048076924867928,0,-0.0120192309841513,0,-0.0480769239366054,0,-0.0120192309841513,0,-0.0120192309841513,0,1e-07,0,1e-07,0
278,0.0120192309841513,0,0.0120192309841513,0,1e-07,0,-0.0120192309841513,0,0.0072115384973585,0,0.0072115384973585,0,-0.0120192309841513,0,-0.0120192309841513,0,-0.0120192309841513,0,1e-07,0,0.0120192309841513,0,1e-07,0
279,0.0120192309841513,0,0.0120192309841513,0,1e-07,0,-0.0120192309841513,0,0.0072115384973585,0,0.0072115384973585,0,-0.0120192309841513,0,-0.0120192309841513,0,-0.0120192309841513,0,1e-07,0,0.0120192309841513,0,1e-07,0
280,0.0120192309841513,0,1e-07,0,-0.0120192309841513,0,-0.0048076924867928,0,0.0120192309841513,0,-0.0048076924867928,0,1e-07,0,-0.060096152126789,0,-0.0120192309841513,0,1e-07,0,1e-07,0,1e-07,0
281,0.0120192309841513,0,1e-07,0,-0.0120192309841513,0,-0.0048076924867928,0,0.0120192309841513,0,-0.0048076924867928,0,1e-07,0,-0.060096152126789,0,-0.0120192309841513,0,1e-07,0,1e-07,0,1e-07,0
282,1e-07,0,0.0120192309841513,0,0.0120192309841513,0,-0.0048076924867928,0,-0.0048076924867928,0,0.0120192309841513,0,1e-07,0,-0.0480769239366054,0,-0.0120192309841513,0,-0.0120192309841513,0,1e-07,0,-0.0120192309841513,0
283,1e-07,0,0.0120192309841513,0,0.0120192309841513,0,-0.0048076924867928,0,-0.0048076924867928,0,0.0120192309841513,0,1e-07,0,-0.0480769239366054,0,-0.0120192309841513,0,-0.0120192309841513,0,1e-07,0,-0.0120192309841513,0
284,1e-07,0,-0.0120192309841513,0,-0.0120192309841513,0,0.0048076924867928,0,0.0048076924867928,0,-0.0120192309841513,0,1e-07,0,0.0360576920211315,0,-0.0120192309841513,0,-0.0120192309841513,0,1e-07,0,-0.0120192309841513,0
285,1e-07,0,-0.0120192309841513,0,-0.0120192309841513,0,0.0048076924867928,0,0.0048076924867928,0,-0.0120192309841513,0,1e-07,0,0.0360576920211315,0,-0.0120192309841513,0,-0.0120192309841513,0,1e-07,0,-0.0120192309841513,0
286,1e-07,0,-0.0240384619683027,0,-0.0240384619683027,0,0.0120192309841513,0,0.0120192309841513,0,-0.0240384619683027,0,1e-07,0,0.0240384619683027,0,-0.0240384619683027,0,-0.0240384619683027,0,-0.0120192309841513,0,-0.0240384619683027,0
287,1e-07,0,-0.0240384619683027,0,-0.0240384619683027,0,0.0120192309841513,0,0.0120192309841513,0,-0.0240384619683027,0,1e-07,0,0.0240384619683027,0,-0.0240384619683027,0,-0.0240384619683027,0,-0.0120192309841513,0,-0.0240384619683027,0
288,-0.0120192309841513,0,-0.0480769239366054,0,-0.0360576920211315,0,0.0288461539894342,0,0.0120192309841513,0,-0.0432692319154739,0,1e-07,0,0.0360576920211315,0,-0.0360576920211315,0,-0.0360576920211315,0,-0.0240384619683027,0,-0.0240384619683027,0
289,-0.0120192309841513,0,-0.0480769239366054,0,-0.0360576920211315,0,0.0288461539894342,0,0.0120192309841513,0,-0.0432692319154739,0,1e-07,0,0.0360576920211315,0,-0.0360576920211315,0,-0.0360576920211315,0,-0.0240384619683027,0,-0.0240384619683027,0
290,1e-07,0,-0.0360576920211315,0,-0.0360576920211315,0,0.0168269239366054,0,0.0168269239366054,0,-0.0360576920211315,0,1e-07,0,-0.0120192309841513,0,-0.0360576920211315,0,-0.0360576920211315,0,-0.0240384619683027,0,-0.0360576920211315,0
291,1e-07,0,-0.0360576920211315,0,-0.0360576920211315,0,0.0168269239366054,0,0.0168269239366054,0,-0.0360576920211315,0,1e-07,0,-0.0120192309841513,0,-0.0360576920211315,0,-0.0360576920211315,0,-0.0240384619683027,0,-0.0360576920211315,0
292,1e-07,0,-0.0360576920211315,0,-0.0360576920211315,0,0.0168269239366054,0,0.0168269239366054,0,-0.0360576920211315,0,1e-07,0,1e-07,0,-0.0360576920211315,0,-0.0480769239366054,0,-0.0360576920211315,0,-0.0360576920211315,0
293,1e-07,0,-0.0360576920211315,0,-0.0360576920211315,0,0.0168269239366054,0,0.0168269239366054,0,-0.0360576920211315,0,1e-07,0,1e-07,0,-0.0360576920211315,0,-0.0480769239366054,0,-0.0360576920211315,0,-0.0360576920211315,0
294,1e-07,0,-0.0360576920211315,0,-0.0360576920211315,0,0.0168269239366054,0,0.0168269239366054,0,-0.0360576920211315,0,1e-07,0,0.0360576920211315,0,-0.0360576920211315,0,-0.0480769239366054,0,-0.0360576920211315,0,-0.0360576920211315,0
295,1e-07,0,-0.0360576920211315,0,-0.0360576920211315,0,0.0168269239366054,0,0.0168269239366054,0,-0.0360576920211315,0,1e-07,0,0.0360576920211315,0,-0.0360576920211315,0,-0.0480769239366054,0,-0.0360576920211315,0,-0.0360576920211315,0
296,1e-07,0,-0.0240384619683027,0,-0.0240384619683027,0,0.0120192309841513,0,0.0120192309841513,0,-0.0240384619683027,0,-0.0120192309841513,0,0.0240384619683027,0,-0.0360576920211315,0,-0.0480769239366054,0,-0.0360576920211315,0,-0.0480769239366054,0
297,1e-07,0,-0.0240384619683027,0,-0.0240384619683027,0,0.0120192309841513,0,0.0120192309841513,0,-0.0240384619683027,0,-0.0120192309841513,0,0.0240384619683027,0,-0.0360576920211315,0,-0.0480769239366054,0,-0.0360576920211315,0,-0.0480769239366054,0
298,-0.0120192309841513,0,-0.0120192309841513,0,1e-07,0,0.0120192309841513,0,-0.0072115384973585,0,-0.0072115384973585,0,-0.0120192309841513,0,-0.0120192309841513,0,-0.0480769239366054,0,-0.0480769239366054,0,-0.0360576920211315,0,-0.0480769239366054,0
299,-0.0120192309841513,0,-0.0120192309841513,0,1e-07,0,0.0120192309841513,0,-0.0072115384973585,0,-0.0072115384973585,0,-0.0120192309841513,0,-0.0120192309841513,0,-0.0480769239366054,0,-0.0480769239366054,0,-0.0360576920211315,0,-0.0480769239366054,0
300,-0.0120192309841513,0,1e-07,0,0.0120192309841513,0,0.0048076924867928,0,-0.0120192309841513,0,0.0048076924867928,0,-0.0120192309841513,0,-0.0480769239366054,0,-0.0360576920211315,0,-0.0480769239366054,0,-0.0360576920211315,0,-0.0360576920211315,0
301,-0.0120192309841513,0,1e-07,0,0.0120192309841513,0,0.0048076924867928,0,-0.0120192309841513,0,0.0048076924867928,0,-0.0120192309841513,0,-0.0480769239366054,0,-0.0360576920211315,0,-0.0480769239366054,0,-0.0360576920211315,0,-0.0360576920211315,0
302,-0.0120192309841513,0,-0.0240384619683027,0,-0.0120192309841513,0,0.0168269239366054,0,1e-07,0,-0.0192307699471712,0,-0.0120192309841513,0,-0.060096152126789,0,-0.0360576920211315,0,-0.0360576920211315,0,-0.0240384619683027,0,-0.0360576920211315,0
303,-0.0120192309841513,0,-0.0240384619683027,0,-0.0120192309841513,0,0.0168269239366054,0,1e-07,0,-0.0192307699471712,0,-0.0120192309841513,0,-0.060096152126789,0,-0.0360576920211315,0,-0.0360576920211315,0,-0.0240384619683027,0,-0.0360576920211315,0
304,-0.0120192309841513,0,-0.0360576920211315,0,-0.0240384619683027,0,0.0240384619683027,0,0.0048076924867928,0,-0.03125,0,1e-07,0,0.0120192309841513,0,-0.0240384619683027,0,-0.0360576920211315,0,-0.0240384619683027,0,-0.0360576920211315,0
305,-0.0120192309841513,0,-0.0360576920211315,0,-0.0240384619683027,0,0.0240384619683027,0,0.0048076924867928,0,-0.03125,0,1e-07,0,0.0120192309841513,0,-0.0240384619683027,0,-0.0360576920211315,0,-0.0240384619683027,0,-0.0360576920211315,0
306,-0.0120192309841513,0,-0.060096152126789,0,-0.0480769239366054,0,0.0360576920211315,0,0.0168269239366054,0,-0.0552884601056575,0,0.0120192309841513,0,1e-07,0,-0.0240384619683027,0,-0.0240384619683027,0,-0.0120192309841513,0,-0.0240384619683027,0
307,-0.0120192309841513,0,-0.060096152126789,0,-0.0480769239366054,0,0.0360576920211315,0,0.0168269239366054,0,-0.0552884601056575,0,0.0120192309841513,0,1e-07,0,-0.0240384619683027,0,-0.0240384619683027,0,-0.0120192309841513,0,-0.0240384619683027,0
308,-0.0120192309841513,0,-0.060096152126789,0,-0.0480769239366054,0,0.0360576920211315,0,0.0168269239366054,0,-0.0552884601056575,0,0.0120192309841513,0,0.0120192309841513,0,-0.0240384619683027,0,-0.0360576920211315,0,-0.0240384619683027,0,-0.0240384619683027,0
309,-0.0120192309841513,0,-0.060096152126789,0,-0.0480769239366054,0,0.0360576920211315,0,0.0168269239366054,0,-0.0552884601056575,0,0.0120192309841513,0,0.0120192309841513,0,-0.0240384619683027,0,-0.0360576920211315,0,-0.0240384619683027,0,-0.0240384619683027,0
310,-0.0120192309841513,0,-0.0480769239366054,0,-0.0360576920211315,0,0.0288461539894342,0,0.0120192309841513,0,-0.0432692319154739,0,1e-07,0,-0.0240384619683027,0,-0.0240384619683027,0,-0.0360576920211315,0,-0.0240384619683027,0,-0.0360576920211315,0
311,-0.0120192309841513,0,-0.0480769239366054,0,-0.0360576920211315,0,0.0288461539894342,0,0.0120192309841513,0,-0.0432692319154739,0,1e-07,0,-0.0240384619683027,0,-0.0240384619683027,0,-0.0360576920211315,0,-0.0240384619683027,0,-0.0360576920211315,0
312,-0.0120192309841513,0,-0.0240384619683027,0,-0.0120192309841513,0,0.0168269239366054,0,1e-07,0,-0.0192307699471712,0,-0.0120192309841513,0,-0.0120192309841513,0,-0.0240384619683027,0,-0.0480769239366054,0,-0.0360576920211315,0,-0.0360576920211315,0
313,-0.0120192309841513,0,-0.0240384619683027,0,-0.0120192309841513,0,0.0168269239366054,0,1e-07,0,-0.0192307699471712,0,-0.0120192309841513,0,-0.0120192309841513,0,-0.0240384619683027,0,-0.0480769239366054,0,-0.0360576920211315,0,-0.0360576920211315,0
314,-0.0120192309841513,0,-0.0240384619683027,0,-0.0120192309841513,0,0.0168269239366054,0,1e-07,0,-0.0192307699471712,0,1e-07,0,0.0240384619683027,0,-0.0240384619683027,0,-0.0480769239366054,0,-0.0360576920211315,0,-0.0480769239366054,0
315,-0.0120192309841513,0,-0.0240384619683027,0,-0.0120192309841513,0,0.0168269239366054,0,1e-07,0,-0.0192307699471712,0,1e-07,0,0.0240384619683027,0,-0.0240384619683027,0,-0.0480769239366054,0,-0.0360576920211315,0,-0.0480769239366054,0
316,-0.0240384619683027,0,-0.0240384619683027,0,1e-07,0,0.0240384619683027,0,-0.0120192309841513,0,-0.0120192309841513,0,1e-07,0,0.0120192309841513,0,-0.0240384619683027,0,-0.0360576920211315,0,-0.0360576920211315,0,-0.0360576920211315,0
317,-0.0240384619683027,0,-0.0240384619683027,0,1e-07,0,0.0240384619683027,0,-0.0120192309841513,0,-0.0120192309841513,0,1e-07,0,0.0120192309841513,0,-0.0240384619683027,0,-0.0360576920211315,0,-0.0360576920211315,0,-0.0360576920211315,0
318,-0.0240384619683027,0,-0.0240384619683027,0,1e-07,0,0.0240384619683027,0,-0.0120192309841513,0,-0.0120192309841513,0,1e-07,0,-0.0360576920211315,0,-0.0360576920211315,0,-0.0480769239366054,0,-0.0360576920211315,0,-0.0480769239366054,0
319,-0.0240384619683027,0,-0.0240384619683027,0,1e-07,0,0.0240384619683027,0,-0.0120192309841513,0,-0.0120192309841513,0,1e-07,0,-0.0360576920211315,0,-0.0360576920211315,0,-0.0480769239366054,0,-0.0360576920211315,0,-0.0480769239366054,0
320,-0.0240384619683027,0,-0.0240384619683027,0,1e-07,0,0.0240384619683027,0,-0.0120192309841513,0,-0.0120192309841513,0,1e-07,0,-0.0480769239366054,0,-0.0240384619683027,0,-0.0360576920211315,0,-0.0240384619683027,0,-0.0480769239366054,0
321,-0.0240384619683027,0,-0.0240384619683027,0,1e-07,0,0.0240384619683027,0,-0.0120192309841513,0,-0.0120192309841513,0,1e-07,0,-0.0480769239366054,0,-0.0240384619683027,0,-0.0360576920211315,0,-0.0240384619683027,0,-0.0480769239366054,0
322,-0.0240384619683027,0,-0.0360576920211315,0,-0.0120192309841513,0,0.0288461539894342,0,-0.0072115384973585,0,-0.0240384619683027,0,1e-07,0,-0.0240384619683027,0,-0.0240384619683027,0,-0.0360576920211315,0,-0.0240384619683027,0,-0.0360576920211315,0
323,-0.0240384619683027,0,-0.0360576920211315,0,-0.0120192309841513,0,0.0288461539894342,0,-0.0072115384973585,0,-0.0240384619683027,0,1e-07,0,-0.0240384619683027,0,-0.0240384619683027,0,-0.0360576920211315,0,-0.0240384619683027,0,-0.0360576920211315,0
324,-0.0240384619683027,0,-0.0480769239366054,0,-0.0240384619683027,0,0.0360576920211315,0,1e-07,0,-0.0360576920211315,0,0.0120192309841513,0,-0.0120192309841513,0,-0.0120192309841513,0,-0.0360576920211315,0,-0.0240384619683027,0,-0.0360576920211315,0
325,-0.0240384619683027,1,-0.0480769239366054,0,-0.0240384619683027,0,0.0360576920211315,0,1e-07,0,-0.0360576920211315,0,0.0120192309841513,1,-0.0120192309841513,0,-0.0120192309841513,0,-0.0360576920211315,0,-0.0240384619683027,0,-0.0360576920211315,0
326,-0.0120192309841513,1,-0.0360576920211315,0,-0.0240384619683027,0,0.0240384619683027,0,0.0048076924867928,0,-0.03125,0,1e-07,1,-0.0480769239366054,0,-0.0240384619683027,0,-0.0360576920211315,0,-0.0240384619683027,0,-0.0360576920211315,0
327,-0.0120192309841513,1,-0.0360576920211315,0,-0.0240384619683027,0,0.0240384619683027,0,0.0048076924867928,0,-0.03125,0,1e-07,1,-0.0480769239366054,0,-0.0240384619683027,0,-0.0360576920211315,0,-0.0240384619683027,0,-0.0360576920211315,1
328,-0.0120192309841513,1,-0.0240384619683027,0,-0.0120192309841513,0,0.0168269239366054,0,1e-07,0,-0.0192307699471712,0,1e-07,1,0.0480769239366054,0,-0.0240384619683027,0,-0.0360576920211315,0,-0.0240384619683027,1,-0.0360576920211315,1
329,-0.0120192309841513,1,-0.0240384619683027,0,-0.0120192309841513,0,0.0168269239366054,0,1e-07,0,-0.0192307699471712,0,1e-07,1,0.0480769239366054,0,-0.0240384619683027,0,-0.0360576920211315,1,-0.0240384619683027,1,-0.0360576920211315,1
330,-0.0240384619683027,1,-0.0120192309841513,0,0.0120192309841513,0,0.0168269239366054,0,-0.0192307699471712,0,1e-07,0,1e-07,1,-0.0240384619683027,0,-0.0240384619683027,0,-0.0480769239366054,1,-0.0360576920211315,1,-0.0480769239366054,1
331,-0.0240384619683027,1,-0.0120192309841513,0,0.0120192309841513,0,0.0168269239366054,0,-0.0192307699471712,0,1e-07,0,1e-07,1,-0.0240384619683027,0,-0.0240384619683027,0,-0.0480769239366054,1,-0.0360576920211315,1,-0.0480769239366054,1
332,-0.0240384619683027,1,-0.0120192309841513,0,0.0120192309841513,0,0.0168269239366054,1,-0.0192307699471712,0,1e-07,0,0.0120192309841513,1,-0.0240384619683027,0,-0.0240384619683027,0,-0.060096152126789,1,-0.060096152126789,1,-0.0841346159577369,1
333,-0.0240384619683027,1,-0.0120192309841513,1,0.0120192309841513,0,0.0168269239366054,1,-0.0192307699471712,0,1e-07,1,0.0120192309841513,1,-0.0240384619683027,0,-0.0240384619683027,0,-0.060096152126789,1,-0.060096152126789,1,-0.0841346159577369,1
334,-0.0360576920211315,1,0.0120192309841513,1,0.0480769239366054,0,0.0120192309841513,1,-0.040865384042263,1,0.0288461539894342,1,0.0240384619683027,1,1e-07,0,-0.0360576920211315,1,-0.0841346159577369,1,-0.0961538478732109,1,-0.1322115361690521,1
335,-0.0360576920211315,1,0.0120192309841513,1,0.0480769239366054,1,0.0120192309841513,1,-0.040865384042263,1,0.0288461539894342,1,0.0240384619683027,1,1e-07,0,-0.0360576920211315,1,-0.0841346159577369,1,-0.0961538478732109,1,-0.1322115361690521,1
336,-0.0360576920211315,1,-0.0240384619683027,1,0.0120192309841513,1,0.0288461539894342,1,-0.0240384619683027,1,-0.0072115384973585,1,0.0480769239366054,1,0.0120192309841513,0,-0.0480769239366054,1,-0.1322115361690521,1,-0.144230768084526,1,-0.1802884638309478,1
337,-0.0360576920211315,1,-0.0240384619683027,1,0.0120192309841513,1,0.0288461539894342,1,-0.0240384619683027,1,-0.0072115384973585,1,0.0480769239366054,1,0.0120192309841513,0,-0.0480769239366054,1,-0.1322115361690521,1,-0.144230768084526,1,-0.1802884638309478,1
338,-0.0240384619683027,1,-0.0480769239366054,1,-0.0240384619683027,1,0.0360576920211315,1,1e-07,1,-0.0360576920211315,1,0.0360576920211315,1,1e-07,0,-0.0120192309841513,1,-0.0841346159577369,1,-0.1081730797886848,1,-0.144230768084526,1
339,-0.0240384619683027,1,-0.0480769239366054,1,-0.0240384619683027,1,0.0360576920211315,1,1e-07,1,-0.0360576920211315,1,0.0360576920211315,1,1e-07,0,-0.0120192309841513,1,-0.0841346159577369,1,-0.1081730797886848,1,-0.144230768084526,1
340,1e-07,1,1e-07,1,1e-07,1,1e-07,1,1e-07,1,1e-07,1,0.0120192309841513,1,-0.060096152126789,0,0.060096152126789,1,0.0480769239366054,1,0.0480769239366054,1,0.0120192309841513,1
341,1e-07,1,1e-07,1,1e-07,1,1e-07,1,1e-07,1,1e-07,1,0.0120192309841513,1,-0.060096152126789,0,0.060096152126789,1,0.0480769239366054,1,0.0480769239366054,1,0.0120192309841513,1
342,0.0480769239366054,1,0.060096152126789,1,0.0120192309841513,1,-0.0528846159577369,1,0.0192307699471712,1,0.0360576920211315,1,-0.0480769239366054,1,0.0360576920211315,0,0.15625,1,0.3125,1,0.3605769276618957,1,0.3485576808452606,1
343,0.0480769239366054,1,0.060096152126789,1,0.0120192309841513,1,-0.0528846159577369,1,0.0192307699471712,1,0.0360576920211315,1,-0.0480769239366054,1,0.0360576920211315,0,0.15625,1,0.3125,1,0.3605769276618957,1,0.3485576808452606,1
344,0.1081730797886848,1,0.1201923042535781,1,0.0120192309841513,1,-0.112980768084526,1,0.0480769239366054,1,0.0673076957464218,1,-0.1201923042535781,1,-0.0360576920211315,0,0.2524038553237915,1,0.625,1,0.7331730723381042,1,0.745192289352417,1
345,0.1081730797886848,1,0.1201923042535781,1,0.0120192309841513,1,-0.112980768084526,1,0.0480769239366054,1,0.0673076957464218,1,-0.1201923042535781,1,-0.0360576920211315,0,0.2524038553237915,1,0.625,1,0.7331730723381042,1,0.745192289352417,1
346,0.15625,1,0.2764423191547394,1,0.1201923042535781,1,-0.2163461595773697,1,0.0192307699471712,1,0.1995192319154739,1,-0.2403846085071563,1,0.0240384619683027,0,0.3245192170143127,1,0.9975961446762084,1,1.213942289352417,1,1.2379807233810425,1
347,0.15625,1,0.2764423191547394,1,0.1201923042535781,1,-0.2163461595773697,1,0.0192307699471712,1,0.1995192319154739,1,-0.2403846085071563,1,0.0240384619683027,0,0.3245192170143127,1,0.9975961446762084,1,1.213942289352417,1,1.2379807233810425,1
348,0.1682692319154739,1,0.4567307829856872,1,0.2884615361690521,1,-0.3125,1,-0.060096152126789,1,0.3725961446762085,1,-0.3485576808452606,1,1e-07,0,0.2524038553237915,1,1.177884578704834,1,1.454326868057251,1,1.478365421295166,1
349,0.1682692319154739,1,0.4567307829856872,1,0.2884615361690521,1,-0.3125,1,-0.060096152126789,1,0.3725961446762085,1,-0.3485576808452606,1,1e-07,0,0.2524038553237915,1,1.177884578704834,1,1.454326868057251,1,1.478365421295166,1
350,0.144230768084526,1,0.5288461446762085,1,0.3846153914928436,1,-0.3365384638309479,1,-0.1201923042535781,1,0.4567307829856872,1,-0.3846153914928436,1,0.0240384619683027,0,0.060096152126789,1,1.021634578704834,1,1.334134578704834,1,1.3942307233810425,1
351,0.144230768084526,1,0.5288461446762085,1,0.3846153914928436,1,-0.3365384638309479,1,-0.1201923042535781,1,0.4567307829856872,1,-0.3846153914928436,1,0.0240384619683027,0,0.060096152126789,1,1.021634578704834,1,1.334134578704834,1,1.3942307233810425,1
352,0.060096152126789,1,0.3125,1,0.2524038553237915,1,-0.1850961595773697,1,-0.0961538478732109,1,0.2836538553237915,1,-0.2884615361690521,1,-0.0360576920211315,0,-0.2403846085071563,1,0.504807710647583,1,0.817307710647583,1,0.9495192170143129,1
353,0.060096152126789,1,0.3125,1,0.2524038553237915,1,-0.1850961595773697,1,-0.0961538478732109,1,0.2836538553237915,1,-0.2884615361690521,1,-0.0360576920211315,0,-0.2403846085071563,1,0.504807710647583,1,0.817307710647583,1,0.9495192170143129,1
354,-0.0360576920211315,1,-0.0360576920211315,1,1e-07,1,0.0360576920211315,1,-0.0192307699471712,1,-0.0192307699471712,1,-0.1201923042535781,1,0.0120192309841513,0,-0.4567307829856872,1,-0.0360576920211315,1,0.1682692319154739,1,0.3365384638309479,1
355,-0.0360576920211315,1,-0.0360576920211315,1,1e-07,1,0.0360576920211315,1,-0.0192307699471712,1,-0.0192307699471712,1,-0.1201923042535781,1,0.0120192309841513,0,-0.4567307829856872,1,-0.0360576920211315,1,0.1682692319154739,1,0.3365384638309479,1
356,-0.060096152126789,1,-0.15625,1,-0.0961538478732109,1,0.1081730797886848,1,0.0168269239366054,1,-0.1274038404226303,1,-0.0360576920211315,1,-0.0360576920211315,0,-0.4807692170143127,1,-0.3004807829856872,1,-0.1802884638309478,1,-0.060096152126789,1
357,-0.060096152126789,1,-0.15625,1,-0.0961538478732109,1,0.1081730797886848,1,0.0168269239366054,1,-0.1274038404226303,1,-0.0360576920211315,1,-0.0360576920211315,0,-0.4807692170143127,1,-0.3004807829856872,1,-0.1802884638309478,1,-0.060096152126789,1
358,-0.0360576920211315,1,-0.2644230723381042,1,-0.2283653914928436,1,0.1490384638309478,1,0.0961538478732109,1,-0.2475961595773697,1,1e-07,1,-0.060096152126789,0,-0.46875,1,-0.3365384638309479,1,-0.2283653914928436,1,-0.1081730797886848,1
359,-0.0360576920211315,1,-0.2644230723381042,1,-0.2283653914928436,1,0.1490384638309478,1,0.0961538478732109,1,-0.2475961595773697,1,1e-07,1,-0.060096152126789,0,-0.46875,1,-0.3365384638309479,1,-0.2283653914928436,1,-0.1081730797886848,1
360,-0.0120192309841513,1,-0.2644230723381042,1,-0.2524038553237915,1,0.1370192319154739,1,0.1201923042535781,1,-0.2596153914928436,1,1e-07,1,0.0240384619683027,0,-0.3725961446762085,1,-0.2403846085071563,1,-0.15625,1,-0.0480769239366054,1
361,-0.0120192309841513,1,-0.2644230723381042,1,-0.2524038553237915,1,0.1370192319154739,1,0.1201923042535781,1,-0.2596153914928436,1,1e-07,1,0.0240384619683027,0,-0.3725961446762085,1,-0.2403846085071563,1,-0.15625,1,-0.0480769239366054,1
362,-0.0240384619683027,1,-0.2524038553237915,1,-0.2283653914928436,1,0.1370192319154739,1,0.1009615361690521,1,-0.2403846085071563,1,0.0360576920211315,1,0.060096152126789,0,-0.3125,1,-0.2043269276618957,1,-0.1322115361690521,1,-0.072115384042263,1
363,-0.0240384619683027,1,-0.2524038553237915,1,-0.2283653914928436,1,0.1370192319154739,1,0.1009615361690521,1,-0.2403846085071563,1,0.0360576920211315,1,0.060096152126789,0,-0.3125,1,-0.2043269276618957,1,-0.1322115361690521,1,-0.072115384042263,1
364,1e-07,1,-0.2043269276618957,1,-0.2043269276618957,1,0.1009615361690521,1,0.1009615361690521,1,-0.2043269276618957,1,1e-07,1,-0.0240384619683027,0,-0.2403846085071563,1,-0.15625,1,-0.1081730797886848,1,-0.060096152126789,1
365,1e-07,1,-0.2043269276618957,1,-0.2043269276618957,1,0.1009615361690521,1,0.1009615361690521,1,-0.2043269276618957,1,1e-07,1,-0.0240384619683027,0,-0.2403846085071563,1,-0.15625,1,-0.1081730797886848,1,-0.060096152126789,1
366,0.0120192309841513,1,-0.1201923042535781,1,-0.1322115361690521,1,0.0528846159577369,1,0.072115384042263,1,-0.125,1,-0.0120192309841513,1,0.0360576920211315,0,-0.15625,1,-0.0961538478732109,1,-0.072115384042263,1,-0.0360576920211315,1
367,0.0120192309841513,1,-0.1201923042535781,1,-0.1322115361690521,1,0.0528846159577369,1,0.072115384042263,1,-0.125,1,-0.0120192309841513,1,0.0360576920211315,0,-0.15625,1,-0.0961538478732109,1,-0.072115384042263,1,-0.0360576920211315,1
368,0.0240384619683027,1,-0.0480769239366054,1,-0.072115384042263,1,0.0120192309841513,1,0.0480769239366054,1,-0.060096152126789,1,1e-07,1,0.0120192309841513,0,-0.0841346159577369,1,-0.0480769239366054,1,-0.0360576920211315,1,-0.0240384619683027,1
369,0.0240384619683027,1,-0.0480769239366054,1,-0.072115384042263,1,0.0120192309841513,1,0.0480769239366054,1,-0.060096152126789,1,1e-07,1,0.0120192309841513,0,-0.0841346159577369,1,-0.0480769239366054,1,-0.0360576920211315,1,-0.0240384619683027,1
370,0.0240384619683027,1,-0.0360576920211315,1,-0.060096152126789,1,0.0048076924867928,1,0.040865384042263,1,-0.0480769239366054,1,0.0240384619683027,1,0.0120192309841513,0,-0.0480769239366054,1,-0.0240384619683027,1,-0.0240384619683027,0,-0.0120192309841513,1
371,0.0240384619683027,1,-0.0360576920211315,1,-0.060096152126789,1,0.0048076924867928,1,0.040865384042263,1,-0.0480769239366054,1,0.0240384619683027,1,0.0120192309841513,0,-0.0480769239366054,1,-0.0240384619683027,1,-0.0240384619683027,0,-0.0120192309841513,0
372,0.0120192309841513,1,-0.0120192309841513,1,-0.0240384619683027,1,1e-07,1,0.0168269239366054,1,-0.0168269239366054,1,0.0240384619683027,1,-0.0240384619683027,0,-0.0240384619683027,1,-0.0120192309841513,1,-0.0120192309841513,0,1e-07,0
373,0.0120192309841513,0,-0.0120192309841513,1,-0.0240384619683027,1,1e-07,1,0.0168269239366054,1,-0.0168269239366054,1,0.0240384619683027,0,-0.0240384619683027,0,-0.0240384619683027,1,-0.0120192309841513,1,-0.0120192309841513,0,1e-07,0
374,0.0120192309841513,0,-0.0120192309841513,1,-0.0240384619683027,1,1e-07,0,0.0168269239366054,1,-0.0168269239366054,1,0.0240384619683027,0,0.0480769239366054,0,1e-07,1,1e-07,0,1e-07,0,1e-07,0
375,0.0120192309841513,0,-0.0120192309841513,1,-0.0240384619683027,1,1e-07,0,0.0168269239366054,1,-0.0168269239366054,1,0.0240384619683027,0,0.0480769239366054,0,1e-07,1,1e-07,0,1e-07,0,1e-07,0
376,1e-07,0,1e-07,1,1e-07,1,1e-07,0,1e-07,1,1e-07,1,0.0240384619683027,0,0.060096152126789,0,0.0120192309841513,1,0.0120192309841513,0,1e-07,0,1e-07,0
377,1e-07,0,1e-07,0,1e-07,1,1e-07,0,1e-07,1,1e-07,1,0.0240384619683027,0,0.060096152126789,0,0.0120192309841513,0,0.0120192309841513,0,1e-07,0,1e-07,0
378,1e-07,0,0.0120192309841513,0,0.0120192309841513,1,-0.0048076924867928,0,-0.0048076924867928,1,0.0120192309841513,1,0.0360576920211315,0,-0.0360576920211315,0,0.0240384619683027,0,0.0120192309841513,0,0.0120192309841513,0,0.0120192309841513,0
379,1e-07,0,0.0120192309841513,0,0.0120192309841513,1,-0.0048076924867928,0,-0.0048076924867928,1,0.0120192309841513,1,0.0360576920211315,0,-0.0360576920211315,0,0.0240384619683027,0,0.0120192309841513,0,0.0120192309841513,0,0.0120192309841513,0
380,1e-07,0,0.0120192309841513,0,0.0120192309841513,0,-0.0048076924867928,0,-0.0048076924867928,0,0.0120192309841513,0,0.0360576920211315,0,-0.0360576920211315,0,0.0240384619683027,0,0.0240384619683027,0,0.0120192309841513,0,0.0120192309841513,0
381,1e-07,0,0.0120192309841513,0,0.0120192309841513,0,-0.0048076924867928,0,-0.0048076924867928,0,0.0120192309841513,0,0.0360576920211315,0,-0.0360576920211315,0,0.0240384619683027,0,0.0240384619683027,0,0.0120192309841513,0,0.0120192309841513,0
382,1e-07,0,0.0120192309841513,0,0.0120192309841513,0,-0.0048076924867928,0,-0.0048076924867928,0,0.0120192309841513,0,0.0360576920211315,0,0.0480769239366054,0,0.0360576920211315,0,0.0240384619683027,0,0.0120192309841513,0,0.0120192309841513,0
383,1e-07,0,0.0120192309841513,0,0.0120192309841513,0,-0.0048076924867928,0,-0.0048076924867928,0,0.0120192309841513,0,0.0360576920211315,0,0.0480769239366054,0,0.0360576920211315,0,0.0240384619683027,0,0.0120192309841513,0,0.0120192309841513,0
384,1e-07,0,0.0120192309841513,0,0.0120192309841513,0,-0.0048076924867928,0,-0.0048076924867928,0,0.0120192309841513,0,0.0360576920211315,0,0.0240384619683027,0,0.0360576920211315,0,0.0240384619683027,0,0.0120192309841513,0,0.0120192309841513,0
385,1e-07,0,0.0120192309841513,0,0.0120192309841513,0,-0.0048076924867928,0,-0.0048076924867928,0,0.0120192309841513,0,0.0360576920211315,0,0.0240384619683027,0,0.0360576920211315,0,0.0240384619683027,0,0.0120192309841513,0,0.0120192309841513,0
386,1e-07,0,0.0120192309841513,0,0.0120192309841513,0,-0.0048076924867928,0,-0.0048076924867928,0,0.0120192309841513,0,0.0240384619683027,0,-0.0480769239366054,0,0.0360576920211315,0,0.0360576920211315,0,0.0240384619683027,0,0.0240384619683027,0
387,1e-07,0,0.0120192309841513,0,0.0120192309841513,0,-0.0048076924867928,0,-0.0048076924867928,0,0.0120192309841513,0,0.0240384619683027,0,-0.0480769239366054,0,0.0360576920211315,0,0.0360576920211315,0,0.0240384619683027,0,0.0240384619683027,0
388,1e-07,0,0.0240384619683027,0,0.0240384619683027,0,-0.0120192309841513,0,-0.0120192309841513,0,0.0240384619683027,0,0.0240384619683027,0,-0.0480769239366054,0,0.0360576920211315,0,0.0360576920211315,0,0.0240384619683027,0,0.0240384619683027,0
389,1e-07,0,0.0240384619683027,0,0.0240384619683027,0,-0.0120192309841513,0,-0.0120192309841513,0,0.0240384619683027,0,0.0240384619683027,0,-0.0480769239366054,0,0.0360576920211315,0,0.0360576920211315,0,0.0240384619683027,0,0.0240384619683027,0
390,1e-07,0,0.0240384619683027,0,0.0240384619683027,0,-0.0120192309841513,0,-0.0120192309841513,0,0.0240384619683027,0,0.0240384619683027,0,-0.0480769239366054,0,0.0360576920211315,0,0.0360576920211315,0,0.0240384619683027,0,0.0240384619683027,0
391,1e-07,0,0.0240384619683027,0,0.0240384619683027,0,-0.0120192309841513,0,-0.0120192309841513,0,0.0240384619683027,0,0.0240384619683027,0,-0.0480769239366054,0,0.0360576920211315,0,0.0360576920211315,0,0.0240384619683027,0,0.0240384619683027,0
392,1e-07,0,0.0240384619683027,0,0.0240384619683027,0,-0.0120192309841513,0,-0.0120192309841513,0,0.0240384619683027,0,0.0240384619683027,0,0.0360576920211315,0,0.0480769239366054,0,0.0360576920211315,0,0.0240384619683027,0,0.0240384619683027,0
393,1e-07,0,0.0240384619683027,0,0.0240384619683027,0,-0.0120192309841513,0,-0.0120192309841513,0,0.0240384619683027,0,0.0240384619683027,0,0.0360576920211315,0,0.0480769239366054,0,0.0360576920211315,0,0.0240384619683027,0,0.0240384619683027,0
394,1e-07,0,0.0240384619683027,0,0.0240384619683027,0,-0.0120192309841513,0,-0.0120192309841513,0,0.0240384619683027,0,0.0240384619683027,0,0.0120192309841513,0,0.0480769239366054,0,0.0480769239366054,0,0.0240384619683027,0,0.0360576920211315,0
395,1e-07,0,0.0240384619683027,0,0.0240384619683027,0,-0.0120192309841513,0,-0.0120192309841513,0,0.0240384619683027,0,0.0240384619683027,0,0.0120192309841513,0,0.0480769239366054,0,0.0480769239366054,0,0.0240384619683027,0,0.0360576920211315,0
396,1e-07,0,0.0240384619683027,0,0.0240384619683027,0,-0.0120192309841513,0,-0.0120192309841513,0,0.0240384619683027,0,0.0360576920211315,0,0.0120192309841513,0,0.0480769239366054,0,0.0480769239366054,0,0.0360576920211315,0,0.0360576920211315,0
397,1e-07,0,0.0240384619683027,0,0.0240384619683027,0,-0.0120192309841513,0,-0.0120192309841513,0,0.0240384619683027,0,0.0360576920211315,0,0.0120192309841513,0,0.0480769239366054,0,0.0480769239366054,0,0.0360576920211315,0,0.0360576920211315,0
398,1e-07,0,0.0240384619683027,0,0.0240384619683027,0,-0.0120192309841513,0,-0.0120192309841513,0,0.0240384619683027,0,0.0360576920211315,0,1e-07,0,0.060096152126789,0,0.0480769239366054,0,0.0360576920211315,0,0.0360576920211315,0
399,1e-07,0,0.0240384619683027,0,0.0240384619683027,0,-0.0120192309841513,0,-0.0120192309841513,0,0.0240384619683027,0,0.0360576920211315,0,1e-07,0,0.060096152126789,0,0.0480769239366054,0,0.0360576920211315,0,0.0360576920211315,0
400,1e-07,0,0.0360576920211315,0,0.0360576920211315,0,-0.0168269239366054,0,-0.0168269239366054,0,0.0360576920211315,0,0.0360576920211315,0,-0.0480769239366054,0,0.0480769239366054,0,0.0480769239366054,0,0.0480769239366054,0,0.0360576920211315,0
401,1e-07,0,0.0360576920211315,0,0.0360576920211315,0,-0.0168269239366054,0,-0.0168269239366054,0,0.0360576920211315,0,0.0360576920211315,0,-0.0480769239366054,0,0.0480769239366054,0,0.0480769239366054,0,0.0480769239366054,0,0.0360576920211315,0
402,0.0120192309841513,0,0.0360576920211315,0,0.0240384619683027,0,-0.0240384619683027,0,-0.0048076924867928,0,0.03125,0,0.0240384619683027,0,1e-07,0,0.0480769239366054,0,0.060096152126789,0,0.0480769239366054,0,0.0360576920211315,0
403,0.0120192309841513,0,0.0360576920211315,0,0.0240384619683027,0,-0.0240384619683027,0,-0.0048076924867928,0,0.03125,0,0.0240384619683027,0,1e-07,0,0.0480769239366054,0,0.060096152126789,0,0.0480769239366054,0,0.0360576920211315,0
404,0.0120192309841513,0,0.0360576920211315,0,0.0240384619683027,0,-0.0240384619683027,0,-0.0048076924867928,0,0.03125,0,0.0240384619683027,0,-0.0120192309841513,0,0.0480769239366054,0,0.060096152126789,0,0.0480769239366054,0,0.0480769239366054,0
405,0.0120192309841513,0,0.0360576920211315,0,0.0240384619683027,0,-0.0240384619683027,0,-0.0048076924867928,0,0.03125,0,0.0240384619683027,0,-0.0120192309841513,0,0.0480769239366054,0,0.060096152126789,0,0.0480769239366054,0,0.0480769239366054,0
406,0.0120192309841513,0,0.0360576920211315,0,0.0240384619683027,0,-0.0240384619683027,0,-0.0048076924867928,0,0.03125,0,0.0240384619683027,0,0.0360576920211315,0,0.0480769239366054,0,0.060096152126789,0,0.0480769239366054,0,0.0480769239366054,0
407,0.0120192309841513,0,0.0360576920211315,0,0.0240384619683027,0,-0.0240384619683027,0,-0.0048076924867928,0,0.03125,0,0.0240384619683027,0,0.0360576920211315,0,0.0480769239366054,0,0.060096152126789,0,0.0480769239366054,0,0.0480769239366054,0
408,0.0120192309841513,0,0.0360576920211315,0,0.0240384619683027,0,-0.0240384619683027,0,-0.0048076924867928,0,0.03125,0,0.0240384619683027,0,0.0480769239366054,0,0.060096152126789,0,0.060096152126789,0,0.060096152126789,0,0.060096152126789,0
409,0.0120192309841513,0,0.0360576920211315,0,0.0240384619683027,0,-0.0240384619683027,0,-0.0048076924867928,0,0.03125,0,0.0240384619683027,0,0.0480769239366054,0,0.060096152126789,0,0.060096152126789,0,0.060096152126789,0,0.060096152126789,0
410,0.0120192309841513,0,0.0360576920211315,0,0.0240384619683027,0,-0.0240384619683027,0,-0.0048076924867928,0,0.03125,0,0.0240384619683027,0,0.0240384619683027,0,0.060096152126789,0,0.072115384042263,0,0.060096152126789,0,0.060096152126789,0
411,0.0120192309841513,0,0.0360576920211315,0,0.0240384619683027,0,-0.0240384619683027,0,-0.0048076924867928,0,0.03125,0,0.0240384619683027,0,0.0240384619683027,0,0.060096152126789,0,0.072115384042263,0,0.060096152126789,0,0.060096152126789,0
412,0.0120192309841513,0,0.0360576920211315,0,0.0240384619683027,0,-0.0240384619683027,0,-0.0048076924867928,0,0.03125,0,0.0240384619683027,0,-0.0360576920211315,0,0.060096152126789,0,0.072115384042263,0,0.072115384042263,0,0.072115384042263,0
413,0.0120192309841513,0,0.0360576920211315,0,0.0240384619683027,0,-0.0240384619683027,0,-0.0048076924867928,0,0.03125,0,0.0240384619683027,0,-0.0360576920211315,0,0.060096152126789,0,0.072115384042263,0,0.072115384042263,0,0.072115384042263,0
414,0.0120192309841513,0,0.0360576920211315,0,0.0240384619683027,0,-0.0240384619683027,0,-0.0048076924867928,0,0.03125,0,0.0240384619683027,0,-0.0480769239366054,0,0.072115384042263,0,0.0841346159577369,0,0.0841346159577369,0,0.072115384042263,0
415,0.0120192309841513,0,0.0360576920211315,0,0.0240384619683027,0,-0.0240384619683027,0,-0.0048076924867928,0,0.03125,0,0.0240384619683027,0,-0.0480769239366054,0,0.072115384042263,0,0.0841346159577369,0,0.0841346159577369,0,0.072115384042263,0
416,0.0120192309841513,0,0.0360576920211315,0,0.0240384619683027,0,-0.0240384619683027,0,-0.0048076924867928,0,0.03125,0,0.0240384619683027,0,-0.0240384619683027,0,0.072115384042263,0,0.072115384042263,0,0.0841346159577369,0,0.0841346159577369,0
417,0.0120192309841513,0,0.0360576920211315,0,0.0240384619683027,0,-0.0240384619683027,0,-0.0048076924867928,0,0.03125,0,0.0240384619683027,0,-0.0240384619683027,0,0.072115384042263,0,0.072115384042263,0,0.0841346159577369,0,0.0841346159577369,0
418,0.0240384619683027,0,0.0480769239366054,0,0.0240384619683027,0,-0.0360576920211315,0,1e-07,0,0.0360576920211315,0,0.0240384619683027,0,-0.0360576920211315,0,0.072115384042263,0,0.0841346159577369,0,0.0841346159577369,0,0.0841346159577369,0
419,0.0240384619683027,0,0.0480769239366054,0,0.0240384619683027,0,-0.0360576920211315,0,1e-07,0,0.0360576920211315,0,0.0240384619683027,0,-0.0360576920211315,0,0.072115384042263,0,0.0841346159577369,0,0.0841346159577369,0,0.0841346159577369,0
420,0.0240384619683027,0,0.0480769239366054,0,0.0240384619683027,0,-0.0360576920211315,0,1e-07,0,0.0360576920211315,0,0.0120192309841513,0,-0.0240384619683027,0,0.0841346159577369,0,0.0841346159577369,0,0.0961538478732109,0,0.0961538478732109,0
421,0.0240384619683027,0,0.0480769239366054,0,0.0240384619683027,0,-0.0360576920211315,0,1e-07,0,0.0360576920211315,0,0.0120192309841513,0,-0.0240384619683027,0,0.0841346159577369,0,0.0841346159577369,0,0.0961538478732109,0,0.0961538478732109,0
422,0.0240384619683027,0,0.060096152126789,0,0.0360576920211315,0,-0.040865384042263,0,-0.0048076924867928,0,0.0480769239366054,0,0.0120192309841513,0,1e-07,0,0.0841346159577369,0,0.0961538478732109,0,0.0961538478732109,0,0.0961538478732109,0
423,0.0240384619683027,0,0.060096152126789,0,0.0360576920211315,0,-0.040865384042263,0,-0.0048076924867928,0,0.0480769239366054,0,0.0120192309841513,0,1e-07,0,0.0841346159577369,0,0.0961538478732109,0,0.0961538478732109,0,0.0961538478732109,0
424,0.0240384619683027,0,0.060096152126789,0,0.0360576920211315,0,-0.040865384042263,0,-0.0048076924867928,0,0.0480769239366054,0,0.0120192309841513,0,0.0360576920211315,0,0.0841346159577369,0,0.0961538478732109,0,0.1081730797886848,0,0.1081730797886848,0
425,0.0240384619683027,0,0.060096152126789,0,0.0360576920211315,0,-0.040865384042263,0,-0.0048076924867928,0,0.0480769239366054,0,0.0120192309841513,0,0.0360576920211315,0,0.0841346159577369,0,0.0961538478732109,0,0.1081730797886848,0,0.1081730797886848,0
426,0.0240384619683027,0,0.060096152126789,0,0.0360576920211315,0,-0.040865384042263,0,-0.0048076924867928,0,0.0480769239366054,0,0.0120192309841513,0,0.0240384619683027,0,0.0961538478732109,0,0.1081730797886848,0,0.1201923042535781,0,0.1201923042535781,0
427,0.0240384619683027,0,0.060096152126789,0,0.0360576920211315,0,-0.040865384042263,0,-0.0048076924867928,0,0.0480769239366054,0,0.0120192309841513,0,0.0240384619683027,0,0.0961538478732109,0,0.1081730797886848,0,0.1201923042535781,0,0.1201923042535781,0
428,0.0240384619683027,0,0.072115384042263,0,0.0480769239366054,0,-0.0480769239366054,0,-0.0120192309841513,0,0.060096152126789,0,0.0120192309841513,0,0.0120192309841513,0,0.0961538478732109,0,0.1081730797886848,0,0.1322115361690521,0,0.1322115361690521,0
429,0.0240384619683027,0,0.072115384042263,0,0.0480769239366054,0,-0.0480769239366054,0,-0.0120192309841513,0,0.060096152126789,0,0.0120192309841513,0,0.0120192309841513,0,0.0961538478732109,0,0.1081730797886848,0,0.1322115361690521,0,0.1322115361690521,0
430,0.0240384619683027,0,0.0841346159577369,0,0.060096152126789,0,-0.0528846159577369,0,-0.0168269239366054,0,0.072115384042263,0,1e-07,0,0.0240384619683027,0,0.1081730797886848,0,0.1201923042535781,0,0.144230768084526,0,0.144230768084526,0
431,0.0240384619683027,0,0.0841346159577369,0,0.060096152126789,0,-0.0528846159577369,0,-0.0168269239366054,0,0.072115384042263,0,1e-07,0,0.0240384619683027,0,0.1081730797886848,0,0.1201923042535781,0,0.144230768084526,0,0.144230768084526,0
432,0.0240384619683027,0,0.0841346159577369,0,0.060096152126789,0,-0.0528846159577369,0,-0.0168269239366054,0,0.072115384042263,0,1e-07,0,0.0360576920211315,0,0.1081730797886848,0,0.1322115361690521,0,0.144230768084526,0,0.15625,0
433,0.0240384619683027,0,0.0841346159577369,0,0.060096152126789,0,-0.0528846159577369,0,-0.0168269239366054,0,0.072115384042263,0,1e-07,0,0.0360576920211315,0,0.1081730797886848,0,0.1322115361690521,0,0.144230768084526,0,0.15625,0
434,0.0240384619683027,0,0.0841346159577369,0,0.060096152126789,0,-0.0528846159577369,0,-0.0168269239366054,0,0.072115384042263,0,1e-07,0,-0.0240384619683027,0,0.1201923042535781,0,0.144230768084526,0,0.1682692319154739,0,0.1682692319154739,0
435,0.0240384619683027,0,0.0841346159577369,0,0.060096152126789,0,-0.0528846159577369,0,-0.0168269239366054,0,0.072115384042263,0,1e-07,0,-0.0240384619683027,0,0.1201923042535781,0,0.144230768084526,0,0.1682692319154739,0,0.1682692319154739,0
436,0.0240384619683027,0,0.0961538478732109,0,0.072115384042263,0,-0.060096152126789,0,-0.0240384619683027,0,0.0841346159577369,0,1e-07,0,0.0240384619683027,0,0.1322115361690521,0,0.1682692319154739,0,0.1802884638309478,0,0.1802884638309478,0
437,0.0240384619683027,0,0.0961538478732109,0,0.072115384042263,0,-0.060096152126789,0,-0.0240384619683027,0,0.0841346159577369,0,1e-07,0,0.0240384619683027,0,0.1322115361690521,0,0.1682692319154739,0,0.1802884638309478,0,0.1802884638309478,0
438,0.0240384619683027,0,0.1081730797886848,0,0.0841346159577369,0,-0.0649038478732109,0,-0.0288461539894342,0,0.0961538478732109,0,1e-07,0,0.0480769239366054,0,0.1322115361690521,0,0.1682692319154739,0,0.1923076957464218,0,0.1923076957464218,0
439,0.0240384619683027,0,0.1081730797886848,0,0.0841346159577369,0,-0.0649038478732109,0,-0.0288461539894342,0,0.0961538478732109,0,1e-07,0,0.0480769239366054,0,0.1322115361690521,0,0.1682692319154739,0,0.1923076957464218,0,0.1923076957464218,0
440,0.0360576920211315,0,0.1201923042535781,0,0.0841346159577369,0,-0.0769230797886848,0,-0.0240384619683027,0,0.103365384042263,0,-0.0120192309841513,0,0.0240384619683027,0,0.144230768084526,0,0.1923076957464218,0,0.2163461595773697,0,0.2163461595773697,0
441,0.0360576920211315,0,0.1201923042535781,0,0.0841346159577369,0,-0.0769230797886848,0,-0.0240384619683027,0,0.103365384042263,0,-0.0120192309841513,0,0.0240384619683027,0,0.144230768084526,0,0.1923076957464218,0,0.2163461595773697,0,0.2163461595773697,0
442,0.0360576920211315,0,0.1322115361690521,0,0.0961538478732109,0,-0.0841346159577369,0,-0.0288461539894342,0,0.1153846159577369,0,-0.0120192309841513,0,0.0120192309841513,0,0.15625,0,0.2043269276618957,0,0.2283653914928436,0,0.2283653914928436,0
443,0.0360576920211315,0,0.1322115361690521,0,0.0961538478732109,0,-0.0841346159577369,0,-0.0288461539894342,0,0.1153846159577369,0,-0.0120192309841513,0,0.0120192309841513,0,0.15625,0,0.2043269276618957,0,0.2283653914928436,0,0.2283653914928436,0
444,0.0360576920211315,0,0.144230768084526,0,0.1081730797886848,0,-0.0889423042535781,0,-0.0360576920211315,0,0.1274038404226303,0,-0.0240384619683027,0,-0.0360576920211315,0,0.1682692319154739,0,0.2163461595773697,0,0.2524038553237915,0,0.2524038553237915,0
445,0.0360576920211315,0,0.144230768084526,0,0.1081730797886848,0,-0.0889423042535781,0,-0.0360576920211315,0,0.1274038404226303,0,-0.0240384619683027,0,-0.0360576920211315,0,0.1682692319154739,0,0.2163461595773697,0,0.2524038553237915,0,0.2524038553237915,0
446,0.0480769239366054,0,0.15625,0,0.1081730797886848,0,-0.1009615361690521,0,-0.0288461539894342,0,0.1322115361690521,0,-0.0240384619683027,0,1e-07,0,0.1802884638309478,0,0.2403846085071563,0,0.2644230723381042,0,0.2764423191547394,0
447,0.0480769239366054,0,0.15625,0,0.1081730797886848,0,-0.1009615361690521,0,-0.0288461539894342,0,0.1322115361690521,0,-0.0240384619683027,0,1e-07,0,0.1802884638309478,0,0.2403846085071563,0,0.2644230723381042,0,0.2764423191547394,0
448,0.0480769239366054,0,0.1682692319154739,0,0.1201923042535781,0,-0.1081730797886848,0,-0.0360576920211315,0,0.144230768084526,0,-0.0360576920211315,0,0.0360576920211315,0,0.1802884638309478,0,0.2524038553237915,0,0.2884615361690521,0,0.2884615361690521,0
449,0.0480769239366054,0,0.1682692319154739,0,0.1201923042535781,0,-0.1081730797886848,0,-0.0360576920211315,0,0.144230768084526,0,-0.0360576920211315,0,0.0360576920211315,0,0.1802884638309478,0,0.2524038553237915,0,0.2884615361690521,0,0.2884615361690521,0
450,0.0480769239366054,0,0.1923076957464218,0,0.144230768084526,0,-0.1201923042535781,0,-0.0480769239366054,0,0.1682692319154739,0,-0.0360576920211315,0,1e-07,0,0.2043269276618957,0,0.2764423191547394,0,0.3125,0,0.3125,0
451,0.0480769239366054,0,0.1923076957464218,0,0.144230768084526,0,-0.1201923042535781,0,-0.0480769239366054,0,0.1682692319154739,0,-0.0360576920211315,0,1e-07,0,0.2043269276618957,0,0.2764423191547394,0,0.3125,0,0.3125,0
452,0.060096152126789,0,0.2043269276618957,0,0.144230768084526,0,-0.1322115361690521,0,-0.040865384042263,0,0.175480768084526,0,-0.0480769239366054,0,0.0240384619683027,0,0.2043269276618957,0,0.2884615361690521,0,0.3245192170143127,0,0.3365384638309479,0
453,0.060096152126789,0,0.2043269276618957,0,0.144230768084526,0,-0.1322115361690521,0,-0.040865384042263,0,0.175480768084526,0,-0.0480769239366054,0,0.0240384619683027,0,0.2043269276618957,0,0.2884615361690521,0,0.3245192170143127,0,0.3365384638309479,0
454,0.060096152126789,0,0.2163461595773697,0,0.15625,0,-0.1370192319154739,0,-0.0480769239366054,0,0.1875,0,-0.0480769239366054,0,0.0120192309841513,0,0.2163461595773697,0,0.3125,0,0.3485576808452606,0,0.3605769276618957,0
455,0.060096152126789,0,0.2163461595773697,0,0.15625,0,-0.1370192319154739,0,-0.0480769239366054,0,0.1875,0,-0.0480769239366054,0,0.0120192309841513,0,0.2163461595773697,0,0.3125,0,0.3485576808452606,0,0.3605769276618957,0
456,0.060096152126789,0,0.2403846085071563,0,0.1802884638309478,0,-0.1490384638309478,0,-0.060096152126789,0,0.2115384638309478,0,-0.060096152126789,0,0.0480769239366054,0,0.2283653914928436,0,0.3245192170143127,0,0.3725961446762085,0,0.3725961446762085,0
457,0.060096152126789,0,0.2403846085071563,0,0.1802884638309478,0,-0.1490384638309478,0,-0.060096152126789,0,0.2115384638309478,0,-0.060096152126789,0,0.0480769239366054,0,0.2283653914928436,0,0.3245192170143127,0,0.3725961446762085,0,0.3725961446762085,0
458,0.072115384042263,0,0.2524038553237915,0,0.1802884638309478,0,-0.1610576957464218,0,-0.0528846159577369,0,0.2163461595773697,0,-0.060096152126789,0,0.0120192309841513,0,0.2403846085071563,0,0.3485576808452606,0,0.3846153914928436,0,0.3966346085071563,0
459,0.072115384042263,0,0.2524038553237915,0,0.1802884638309478,0,-0.1610576957464218,0,-0.0528846159577369,0,0.2163461595773697,0,-0.060096152126789,0,0.0120192309841513,0,0.2403846085071563,0,0.3485576808452606,0,0.3846153914928436,0,0.3966346085071563,0
460,0.072115384042263,0,0.2764423191547394,0,0.2043269276618957,0,-0.1730769276618957,0,-0.0649038478732109,0,0.2403846085071563,0,-0.072115384042263,0,-0.0360576920211315,0,0.2524038553237915,0,0.3605769276618957,0,0.4086538553237915,0,0.4206730723381042,0
461,0.072115384042263,0,0.2764423191547394,0,0.2043269276618957,0,-0.1730769276618957,0,-0.0649038478732109,0,0.2403846085071563,0,-0.072115384042263,0,-0.0360576920211315,0,0.2524038553237915,0,0.3605769276618957,0,0.4086538553237915,0,0.4206730723381042,0
462,0.072115384042263,0,0.2884615361690521,0,0.2163461595773697,0,-0.1802884638309478,0,-0.072115384042263,0,0.2524038553237915,0,-0.072115384042263,0,0.0240384619683027,0,0.2524038553237915,0,0.3725961446762085,0,0.4326923191547394,0,0.4326923191547394,0
463,0.072115384042263,0,0.2884615361690521,0,0.2163461595773697,0,-0.1802884638309478,0,-0.072115384042263,0,0.2524038553237915,0,-0.072115384042263,0,0.0240384619683027,0,0.2524038553237915,0,0.3725961446762085,0,0.4326923191547394,0,0.4326923191547394,0
464,0.072115384042263,0,0.3004807829856872,0,0.2283653914928436,0,-0.1850961595773697,0,-0.0769230797886848,0,0.2644230723381042,0,-0.0841346159577369,0,-0.0240384619683027,0,0.2644230723381042,0,0.3966346085071563,0,0.4447115361690521,0,0.4567307829856872,0
465,0.072115384042263,0,0.3004807829856872,0,0.2283653914928436,0,-0.1850961595773697,0,-0.0769230797886848,0,0.2644230723381042,0,-0.0841346159577369,0,-0.0240384619683027,0,0.2644230723381042,0,0.3966346085071563,0,0.4447115361690521,0,0.4567307829856872,0
466,0.072115384042263,0,0.3245192170143127,0,0.2524038553237915,0,-0.1971153914928436,0,-0.0889423042535781,0,0.2884615361690521,0,-0.0961538478732109,0,-0.060096152126789,0,0.2764423191547394,0,0.3966346085071563,0,0.4567307829856872,0,0.46875,0
467,0.072115384042263,0,0.3245192170143127,0,0.2524038553237915,0,-0.1971153914928436,0,-0.0889423042535781,0,0.2884615361690521,0,-0.0961538478732109,0,-0.060096152126789,0,0.2764423191547394,0,0.3966346085071563,0,0.4567307829856872,0,0.46875,0
468,0.0841346159577369,0,0.3365384638309479,0,0.2524038553237915,0,-0.2091346085071563,0,-0.0841346159577369,0,0.2956730723381042,0,-0.0961538478732109,0,-0.0120192309841513,0,0.2764423191547394,0,0.4086538553237915,0,0.46875,0,0.4807692170143127,0
469,0.0841346159577369,0,0.3365384638309479,0,0.2524038553237915,0,-0.2091346085071563,0,-0.0841346159577369,0,0.2956730723381042,0,-0.0961538478732109,0,-0.0120192309841513,0,0.2764423191547394,0,0.4086538553237915,0,0.46875,0,0.4807692170143127,0
470,0.0841346159577369,0,0.3485576808452606,0,0.2644230723381042,0,-0.2163461595773697,0,-0.0889423042535781,0,0.3076923191547394,0,-0.0961538478732109,0,-0.060096152126789,0,0.2764423191547394,0,0.4206730723381042,0,0.4807692170143127,0,0.4927884638309479,0
471,0.0841346159577369,0,0.3485576808452606,0,0.2644230723381042,0,-0.2163461595773697,0,-0.0889423042535781,0,0.3076923191547394,0,-0.0961538478732109,0,-0.060096152126789,0,0.2764423191547394,0,0.4206730723381042,0,0.4807692170143127,0,0.4927884638309479,0
472,0.0841346159577369,0,0.3485576808452606,0,0.2644230723381042,0,-0.2163461595773697,0,-0.0889423042535781,0,0.3076923191547394,0,-0.1081730797886848,0,-0.0480769239366054,0,0.2884615361690521,0,0.4326923191547394,0,0.4927884638309479,0,0.504807710647583,0
473,0.0841346159577369,0,0.3485576808452606,0,0.2644230723381042,0,-0.2163461595773697,0,-0.0889423042535781,0,0.3076923191547394,0,-0.1081730797886848,0,-0.0480769239366054,0,0.2884615361690521,0,0.4326923191547394,0,0.4927884638309479,0,0.504807710647583,0
474,0.072115384042263,0,0.3605769276618957,0,0.2884615361690521,0,-0.2163461595773697,0,-0.1081730797886848,0,0.3245192170143127,0,-0.1081730797886848,0,-0.0480769239366054,0,0.2884615361690521,0,0.4326923191547394,0,0.4927884638309479,0,0.5168269276618958,0
475,0.072115384042263,0,0.3605769276618957,0,0.2884615361690521,0,-0.2163461595773697,0,-0.1081730797886848,0,0.3245192170143127,0,-0.1081730797886848,0,-0.0480769239366054,0,0.2884615361690521,0,0.4326923191547394,0,0.4927884638309479,0,0.5168269276618958,0
476,0.072115384042263,0,0.3605769276618957,0,0.2884615361690521,0,-0.2163461595773697,0,-0.1081730797886848,0,0.3245192170143127,0,-0.1081730797886848,0,0.0240384619683027,0,0.2884615361690521,0,0.4326923191547394,0,0.504807710647583,0,0.5168269276618958,0
477,0.072115384042263,0,0.3605769276618957,0,0.2884615361690521,0,-0.2163461595773697,0,-0.1081730797886848,0,0.3245192170143127,0,-0.1081730797886848,0,0.0240384619683027,0,0.2884615361690521,0,0.4326923191547394,0,0.504807710647583,0,0.5168269276618958,0
478,0.072115384042263,0,0.3605769276618957,0,0.2884615361690521,0,-0.2163461595773697,0,-0.1081730797886848,0,0.3245192170143127,0,-0.1081730797886848,0,-0.0120192309841513,0,0.2884615361690521,0,0.4326923191547394,0,0.4927884638309479,0,0.504807710647583,0
479,0.072115384042263,0,0.3605769276618957,0,0.2884615361690521,0,-0.2163461595773697,0,-0.1081730797886848,0,0.3245192170143127,0,-0.1081730797886848,0,-0.0120192309841513,0,0.2884615361690521,0,0.4326923191547394,0,0.4927884638309479,0,0.504807710647583,0
480,0.072115384042263,0,0.3485576808452606,0,0.2764423191547394,0,-0.2091346085071563,0,-0.1009615361690521,0,0.3125,0,-0.1081730797886848,0,0.060096152126789,0,0.2764423191547394,0,0.4206730723381042,0,0.4807692170143127,0,0.4927884638309479,0
481,0.072115384042263,0,0.3485576808452606,0,0.2764423191547394,0,-0.2091346085071563,0,-0.1009615361690521,0,0.3125,0,-0.1081730797886848,0,0.060096152126789,0,0.2764423191547394,0,0.4206730723381042,0,0.4807692170143127,0,0.4927884638309479,0
482,0.072115384042263,0,0.3365384638309479,0,0.2644230723381042,0,-0.2043269276618957,0,-0.0961538478732109,0,0.3004807829856872,0,-0.1081730797886848,0,-0.0240384619683027,0,0.2644230723381042,0,0.4086538553237915,0,0.46875,0,0.4807692170143127,0
483,0.072115384042263,0,0.3365384638309479,0,0.2644230723381042,0,-0.2043269276618957,0,-0.0961538478732109,0,0.3004807829856872,0,-0.1081730797886848,0,-0.0240384619683027,0,0.2644230723381042,0,0.4086538553237915,0,0.46875,0,0.4807692170143127,0
484,0.060096152126789,0,0.3245192170143127,0,0.2644230723381042,0,-0.1923076957464218,0,-0.1009615361690521,0,0.2956730723381042,0,-0.0961538478732109,0,0.0240384619683027,0,0.2524038553237915,0,0.3846153914928436,0,0.4447115361690521,0,0.4567307829856872,0
485,0.060096152126789,0,0.3245192170143127,0,0.2644230723381042,0,-0.1923076957464218,0,-0.1009615361690521,0,0.2956730723381042,0,-0.0961538478732109,0,0.0240384619683027,0,0.2524038553237915,0,0.3846153914928436,0,0.4447115361690521,0,0.4567307829856872,0
486,0.060096152126789,0,0.3004807829856872,0,0.2403846085071563,0,-0.1802884638309478,0,-0.0889423042535781,0,0.2716346085071563,0,-0.0961538478732109,0,-0.0120192309841513,0,0.2283653914928436,0,0.3485576808452606,0,0.4086538553237915,0,0.4206730723381042,0
487,0.060096152126789,0,0.3004807829856872,0,0.2403846085071563,0,-0.1802884638309478,0,-0.0889423042535781,0,0.2716346085071563,0,-0.0961538478732109,0,-0.0120192309841513,0,0.2283653914928436,0,0.3485576808452606,0,0.4086538553237915,0,0.4206730723381042,0
488,0.0480769239366054,0,0.2764423191547394,0,0.2283653914928436,0,-0.1610576957464218,0,-0.0889423042535781,0,0.2524038553237915,0,-0.0841346159577369,0,0.0240384619683027,0,0.2163461595773697,0,0.3245192170143127,0,0.3725961446762085,0,0.3846153914928436,0
489,0.0480769239366054,0,0.2764423191547394,0,0.2283653914928436,0,-0.1610576957464218,0,-0.0889423042535781,0,0.2524038553237915,0,-0.0841346159577369,0,0.0240384619683027,0,0.2163461595773697,0,0.3245192170143127,0,0.3725961446762085,0,0.3846153914928436,0
490,0.0480769239366054,0,0.2524038553237915,0,0.2043269276618957,0,-0.1490384638309478,0,-0.0769230797886848,0,0.2283653914928436,0,-0.072115384042263,0,-0.0360576920211315,0,0.1923076957464218,0,0.2884615361690521,0,0.3365384638309479,0,0.3485576808452606,0
491,0.0480769239366054,0,0.2524038553237915,0,0.2043269276618957,0,-0.1490384638309478,0,-0.0769230797886848,0,0.2283653914928436,0,-0.072115384042263,0,-0.0360576920211315,0,0.1923076957464218,0,0.2884615361690521,0,0.3365384638309479,0,0.3485576808452606,0
492,0.0360576920211315,0,0.2163461595773697,0,0.1802884638309478,0,-0.125,0,-0.072115384042263,0,0.1995192319154739,0,-0.072115384042263,0,-0.0240384619683027,0,0.1682692319154739,0,0.2524038553237915,0,0.3004807829856872,0,0.3004807829856872,0
493,0.0360576920211315,0,0.2163461595773697,0,0.1802884638309478,0,-0.125,0,-0.072115384042263,0,0.1995192319154739,0,-0.072115384042263,0,-0.0240384619683027,0,0.1682692319154739,0,0.2524038553237915,0,0.3004807829856872,0,0.3004807829856872,0
494,0.0360576920211315,0,0.1923076957464218,0,0.15625,0,-0.112980768084526,0,-0.060096152126789,0,0.175480768084526,0,-0.060096152126789,0,0.0120192309841513,0,0.144230768084526,0,0.2163461595773697,0,0.2524038553237915,0,0.2644230723381042,0
495,0.0360576920211315,0,0.1923076957464218,0,0.15625,0,-0.112980768084526,0,-0.060096152126789,0,0.175480768084526,0,-0.060096152126789,0,0.0120192309841513,0,0.144230768084526,0,0.2163461595773697,0,0.2524038553237915,0,0.2644230723381042,0
496,0.0240384619683027,0,0.1682692319154739,0,0.144230768084526,0,-0.0961538478732109,0,-0.060096152126789,0,0.15625,0,-0.060096152126789,0,0.0120192309841513,0,0.1201923042535781,0,0.1802884638309478,0,0.2163461595773697,0,0.2283653914928436,0
497,0.0240384619683027,0,0.1682692319154739,0,0.144230768084526,0,-0.0961538478732109,0,-0.060096152126789,0,0.15625,0,-0.060096152126789,0,0.0120192309841513,0,0.1201923042535781,0,0.1802884638309478,0,0.2163461595773697,0,0.2283653914928436,0
498,0.0240384619683027,0,0.144230768084526,0,0.1201923042535781,0,-0.0841346159577369,0,-0.0480769239366054,0,0.1322115361690521,0,-0.0480769239366054,0,-0.0360576920211315,0,0.1081730797886848,0,0.15625,0,0.1802884638309478,0,0.1923076957464218,0
499,0.0240384619683027,0,0.144230768084526,0,0.1201923042535781,0,-0.0841346159577369,0,-0.0480769239366054,0,0.1322115361690521,0,-0.0480769239366054,0,-0.0360576920211315,0,0.1081730797886848,0,0.15625,0,0.1802884638309478,0,0.1923076957464218,0
500,0.0120192309841513,0,0.1201923042535781,0,0.1081730797886848,0,-0.0649038478732109,0,-0.0480769239366054,0,0.1153846159577369,0,-0.0480769239366054,0,0.0240384619683027,0,0.0841346159577369,0,0.1201923042535781,0,0.144230768084526,0,0.15625,0
501,0.0120192309841513,0,0.1201923042535781,0,0.1081730797886848,0,-0.0649038478732109,0,-0.0480769239366054,0,0.1153846159577369,0,-0.0480769239366054,0,0.0240384619683027,0,0.0841346159577369,0,0.1201923042535781,0,0.144230768084526,0,0.15625,0
502,0.0120192309841513,0,0.1081730797886848,0,0.0961538478732109,0,-0.060096152126789,0,-0.040865384042263,0,0.103365384042263,0,-0.0360576920211315,0,-0.0480769239366054,0,0.060096152126789,0,0.0961538478732109,0,0.1201923042535781,0,0.1201923042535781,0
503,0.0120192309841513,0,0.1081730797886848,0,0.0961538478732109,0,-0.060096152126789,0,-0.040865384042263,0,0.103365384042263,0,-0.0360576920211315,0,-0.0480769239366054,0,0.060096152126789,0,0.0961538478732109,0,0.1201923042535781,0,0.1201923042535781,0
504,0.0120192309841513,0,0.0841346159577369,0,0.072115384042263,0,-0.0480769239366054,0,-0.0288461539894342,0,0.0793269202113151,0,-0.0360576920211315,0,-0.0240384619683027,0,0.0480769239366054,0,0.072115384042263,0,0.0961538478732109,0,0.0961538478732109,0
505,0.0120192309841513,0,0.0841346159577369,0,0.072115384042263,0,-0.0480769239366054,0,-0.0288461539894342,0,0.0793269202113151,0,-0.0360576920211315,0,-0.0240384619683027,0,0.0480769239366054,0,0.072115384042263,0,0.0961538478732109,0,0.0961538478732109,0
506,1e-07,0,0.060096152126789,0,0.060096152126789,0,-0.0288461539894342,0,-0.0288461539894342,0,0.060096152126789,0,-0.0240384619683027,0,-0.0480769239366054,0,0.0360576920211315,0,0.060096152126789,0,0.072115384042263,0,0.0841346159577369,0
507,1e-07,0,0.060096152126789,0,0.060096152126789,0,-0.0288461539894342,0,-0.0288461539894342,0,0.060096152126789,0,-0.0240384619683027,0,-0.0480769239366054,0,0.0360576920211315,0,0.060096152126789,0,0.072115384042263,0,0.0841346159577369,0
508,1e-07,0,0.0480769239366054,0,0.0480769239366054,0,-0.0240384619683027,0,-0.0240384619683027,0,0.0480769239366054,0,-0.0240384619683027,0,1e-07,0,0.0240384619683027,0,0.0480769239366054,0,0.060096152126789,0,0.060096152126789,0
509,1e-07,0,0.0480769239366054,0,0.0480769239366054,0,-0.0240384619683027,0,-0.0240384619683027,0,0.0480769239366054,0,-0.0240384619683027,0,1e-07,0,0.0240384619683027,0,0.0480769239366054,0,0.060096152126789,0,0.060096152126789,0
510,1e-07,0,0.0360576920211315,0,0.0360576920211315,0,-0.0168269239366054,0,-0.0168269239366054,0,0.0360576920211315,0,-0.0120192309841513,0,-0.0120192309841513,0,0.0240384619683027,0,0.0360576920211315,0,0.0480769239366054,0,0.0480769239366054,0
511,1e-07,0,0.0360576920211315,0,0.0360576920211315,0,-0.0168269239366054,0,-0.0168269239366054,0,0.0360576920211315,0,-0.0120192309841513,0,-0.0120192309841513,0,0.0240384619683027,0,0.0360576920211315,0,0.0480769239366054,0,0.0480769239366054,0
512,1e-07,0,0.0240384619683027,0,0.0240384619683027,0,-0.0120192309841513,0,-0.0120192309841513,0,0.0240384619683027,0,-0.0120192309841513,0,-0.0240384619683027,0,0.0120192309841513,0,0.0120192309841513,0,0.0360576920211315,0,0.0360576920211315,0
513,1e-07,0,0.0240384619683027,0,0.0240384619683027,0,-0.0120192309841513,0,-0.0120192309841513,0,0.0240384619683027,0,-0.0120192309841513,0,-0.0240384619683027,0,0.0120192309841513,0,0.0120192309841513,0,0.0360576920211315,0,0.0360576920211315,0
514,1e-07,0,0.0120192309841513,0,0.0120192309841513,0,-0.0048076924867928,0,-0.0048076924867928,0,0.0120192309841513,0,-0.0120192309841513,0,0.0120192309841513,0,1e-07,0,0.0120192309841513,0,0.0240384619683027,0,0.0240384619683027,0
515,1e-07,0,0.0120192309841513,0,0.0120192309841513,0,-0.0048076924867928,0,-0.0048076924867928,0,0.0120192309841513,0,-0.0120192309841513,0,0.0120192309841513,0,1e-07,0,0.0120192309841513,0,0.0240384619683027,0,0.0240384619683027,0
516,-0.0120192309841513,0,0.0120192309841513,0,0.0240384619683027,0,1e-07,0,-0.0168269239366054,0,0.0168269239366054,0,-0.0120192309841513,0,1e-07,0,1e-07,0,1e-07,0,0.0120192309841513,0,0.0240384619683027,0
517,-0.0120192309841513,0,0.0120192309841513,0,0.0240384619683027,0,1e-07,0,-0.0168269239366054,0,0.0168269239366054,0,-0.0120192309841513,0,1e-07,0,1e-07,0,1e-07,0,0.0120192309841513,0,0.0240384619683027,0
518,-0.0120192309841513,0,1e-07,0,0.0120192309841513,0,0.0048076924867928,0,-0.0120192309841513,0,0.0048076924867928,0,-0.0120192309841513,0,-0.0120192309841513,0,1e-07,0,1e-07,0,1e-07,0,0.0120192309841513,0
519,-0.0120192309841513,0,1e-07,0,0.0120192309841513,0,0.0048076924867928,0,-0.0120192309841513,0,0.0048076924867928,0,-0.0120192309841513,0,-0.0120192309841513,0,1e-07,0,1e-07,0,1e-07,0,0.0120192309841513,0
520,-0.0120192309841513,0,1e-07,0,0.0120192309841513,0,0.0048076924867928,0,-0.0120192309841513,0,0.0048076924867928,0,-0.0120192309841513,0,-0.0240384619683027,0,-0.0120192309841513,0,-0.0120192309841513,0,1e-07,0,0.0120192309841513,0
521,-0.0120192309841513,0,1e-07,0,0.0120192309841513,0,0.0048076924867928,0,-0.0120192309841513,0,0.0048076924867928,0,-0.0120192309841513,0,-0.0240384619683027,0,-0.0120192309841513,0,-0.0120192309841513,0,1e-07,0,0.0120192309841513,0
522,-0.0120192309841513,0,1e-07,0,0.0120192309841513,0,0.0048076924867928,0,-0.0120192309841513,0,0.0048076924867928,0,-0.0120192309841513,0,0.0480769239366054,0,-0.0120192309841513,0,-0.0120192309841513,0,1e-07,0,0.0120192309841513,0
523,-0.0120192309841513,0,1e-07,0,0.0120192309841513,0,0.0048076924867928,0,-0.0120192309841513,0,0.0048076924867928,0,-0.0120192309841513,0,0.0480769239366054,0,-0.0120192309841513,0,-0.0120192309841513,0,1e-07,0,0.0120192309841513,0
524,-0.0120192309841513,0,-0.0120192309841513,0,1e-07,0,0.0120192309841513,0,-0.0072115384973585,0,-0.0072115384973585,0,-0.0120192309841513,0,-0.0240384619683027,0,-0.0120192309841513,0,-0.0120192309841513,0,-0.0120192309841513,0,1e-07,0
525,-0.0120192309841513,0,-0.0120192309841513,0,1e-07,0,0.0120192309841513,0,-0.0072115384973585,0,-0.0072115384973585,0,-0.0120192309841513,0,-0.0240384619683027,0,-0.0120192309841513,0,-0.0120192309841513,0,-0.0120192309841513,0,1e-07,0
526,-0.0120192309841513,0,1e-07,0,0.0120192309841513,0,0.0048076924867928,0,-0.0120192309841513,0,0.0048076924867928,0,-0.0120192309841513,0,0.0480769239366054,0,-0.0120192309841513,0,-0.0120192309841513,0,-0.0120192309841513,0,1e-07,0
527,-0.0120192309841513,0,1e-07,0,0.0120192309841513,0,0.0048076924867928,0,-0.0120192309841513,0,0.0048076924867928,0,-0.0120192309841513,0,0.0480769239366054,0,-0.0120192309841513,0,-0.0120192309841513,0,-0.0120192309841513,0,1e-07,0
528,-0.0120192309841513,0,-0.0120192309841513,0,1e-07,0,0.0120192309841513,0,-0.0072115384973585,0,-0.0072115384973585,0,1e-07,0,0.0480769239366054,0,-0.0120192309841513,0,1e-07,0,1e-07,0,1e-07,0
529,-0.0120192309841513,0,-0.0120192309841513,0,1e-07,0,0.0120192309841513,0,-0.0072115384973585,0,-0.0072115384973585,0,1e-07,0,0.0480769239366054,0,-0.0120192309841513,0,1e-07,0,1e-07,0,1e-07,0
530,-0.0120192309841513,0,1e-07,0,0.0120192309841513,0,0.0048076924867928,0,-0.0120192309841513,0,0.0048076924867928,0,1e-07,0,1e-07,0,-0.0120192309841513,0,-0.0120192309841513,0,-0.0120192309841513,0,1e-07,0
531,-0.0120192309841513,0,1e-07,0,0.0120192309841513,0,0.0048076924867928,0,-0.0120192309841513,0,0.0048076924867928,0,1e-07,0,1e-07,0,-0.0120192309841513,0,-0.0120192309841513,0,-0.0120192309841513,0,1e-07,0
532,-0.0120192309841513,0,-0.0120192309841513,0,1e-07,0,0.0120192309841513,0,-0.0072115384973585,0,-0.0072115384973585,0,1e-07,0,0.0360576920211315,0,-0.0120192309841513,0,-0.0120192309841513,0,-0.0120192309841513,0,1e-07,0
533,-0.0120192309841513,0,-0.0120192309841513,0,1e-07,0,0.0120192309841513,0,-0.0072115384973585,0,-0.0072115384973585,0,1e-07,0,0.0360576920211315,0,-0.0120192309841513,0,-0.0120192309841513,0,-0.0120192309841513,0,1e-07,0
534,-0.0120192309841513,0,-0.0120192309841513,0,1e-07,0,0.0120192309841513,0,-0.0072115384973585,0,-0.0072115384973585,0,1e-07,0,-0.0120192309841513,0,-0.0120192309841513,0,-0.0120192309841513,0,-0.0120192309841513,0,1e-07,0
535,-0.0120192309841513,0,-0.0120192309841513,0,1e-07,0,0.0120192309841513,0,-0.0072115384973585,0,-0.0072115384973585,0,1e-07,0,-0.0120192309841513,0,-0.0120192309841513,0,-0.0120192309841513,0,-0.0120192309841513,0,1e-07,0
536,-0.0120192309841513,0,-0.0120192309841513,0,1e-07,0,0.0120192309841513,0,-0.0072115384973585,0,-0.0072115384973585,0,1e-07,0,-0.060096152126789,0,-0.0120192309841513,0,-0.0120192309841513,0,-0.0120192309841513,0,-0.0120192309841513,0
537,-0.0120192309841513,0,-0.0120192309841513,0,1e-07,0,0.0120192309841513,0,-0.0072115384973585,0,-0.0072115384973585,0,1e-07,0,-0.060096152126789,0,-0.0120192309841513,0,-0.0120192309841513,0,-0.0120192309841513,0,-0.0120192309841513,0
538,-0.0120192309841513,0,-0.0120192309841513,0,1e-07,0,0.0120192309841513,0,-0.0072115384973585,0,-0.0072115384973585,0,-0.0120192309841513,0,-0.0120192309841513,0,-0.0240384619683027,0,-0.0120192309841513,0,-0.0120192309841513,0,-0.0120192309841513,0
